"","time","adi_ecg","adi_finger","adi_fro","ard_fro","ibi","id"
"80",0.079,0.73125,-0.0225,4.859687,0.00046875,NA,"001"
"907",0.906,0.778125,-0.0019375,4.861562,0.00078125,0.827,"001"
"1744",1.743,0.790625,-0.0076875,4.86125,0.0009375,0.837,"001"
"2586",2.585,0.74375,-0.0405,4.456563,0.00078125,0.842,"001"
"3460",3.459,0.784375,-0.0125,4.86125,0.00078125,0.874,"001"
"4375",4.374,0.684375,-0.0038125,4.860313,0.0009375,0.915,"001"
"5318",5.317,0.76875,-0.00025,4.860938,0.00078125,0.943000000000001,"001"
"6248",6.247,0.75,-0.0035,4.852812,0.00078125,0.93,"001"
"7149",7.148,0.68125,0.00125,4.860313,0.00046875,0.901,"001"
"8060",8.059,0.75,-0.004875,4.779375,0.000625,0.911,"001"
"9006",9.005,0.74375,-0.0041875,4.86,0.000625,0.946000000000002,"001"
"9981",9.98,0.696875,-0.006375,4.86125,0.000625,0.975,"001"
"10954",10.953,0.7375,-0.0021875,4.859375,0.000625,0.972999999999999,"001"
"11907",11.906,0.734375,-0.0035,4.552812,0.000625,0.953000000000001,"001"
"12824",12.823,0.725,-0.0074375,4.859375,0.00078125,0.917,"001"
"13709",13.708,0.775,-0.0084375,4.86125,0.000625,0.885,"001"
"14610",14.609,0.765625,-0.0029375,4.859375,0.0009375,0.901,"001"
"15547",15.546,0.753125,-0.001,4.835938,0.000625,0.936999999999999,"001"
"16486",16.485,0.7125,-0.0015625,3.747187,0.000625,0.939,"001"
"17403",17.402,0.696875,0.0014375,3.5275,0.00078125,0.917000000000002,"001"
"18286",18.285,0.76875,0.025625,4.861875,0.000625,0.882999999999999,"001"
"19189",19.188,0.775,-0.0145,4.86125,0.000625,0.902999999999999,"001"
"20109",20.108,0.778125,-0.009,4.86125,0.00078125,0.920000000000002,"001"
"21030",21.029,0.815625,-0.004625,4.86125,0.000625,0.920999999999999,"001"
"21949",21.948,0.734375,-0.00275,4.861562,0.000625,0.919,"001"
"22858",22.857,0.765625,0.002375,4.86125,0.000625,0.908999999999999,"001"
"23715",23.714,0.721875,-0.0040625,4.233438,0.000625,0.856999999999999,"001"
"24548",24.547,0.73125,-0.006625,2.86625,0.000625,0.833000000000002,"001"
"25393",25.392,0.76875,-0.0060625,3.979062,0.000625,0.844999999999999,"001"
"26291",26.29,0.759375,-0.000625,4.860625,0.00046875,0.898,"001"
"27255",27.254,0.828125,-0.003375,4.4725,0.00078125,0.964000000000002,"001"
"28237",28.236,0.81875,0,4.86125,0.000625,0.981999999999999,"001"
"29176",29.175,0.696875,-0.008875,4.86,0.000625,0.939,"001"
"30103",30.102,0.728125,-0.0048125,4.762812,0.000625,0.927,"001"
"31039",31.038,0.76875,-0.00325,3.825625,0.00046875,0.936,"001"
"31978",31.977,0.709375,-0.0046875,4.860313,0.00046875,0.939,"001"
"32860",32.859,0.7,-0.004,4.860938,0.00078125,0.882000000000001,"001"
"33708",33.707,0.74375,-0.0025,4.852188,0.00078125,0.847999999999999,"001"
"34572",34.571,0.746875,-0.0061875,4.86125,0.00046875,0.863999999999997,"001"
"35446",35.445,0.684375,-0.0008125,4.860625,0.000625,0.874000000000002,"001"
"36338",36.337,0.78125,-0.0019375,4.860313,0.00078125,0.892000000000003,"001"
"37207",37.206,0.675,-0.0045625,4.860625,0.00078125,0.869,"001"
"38070",38.069,0.775,-0.0029375,4.86125,0.00078125,0.863,"001"
"38960",38.959,0.678125,-0.009125,4.860313,0.00046875,0.890000000000001,"001"
"39887",39.886,0.715625,-0.004625,4.859063,0.000625,0.927,"001"
"40838",40.837,0.809375,-0.0031875,4.86125,0.00078125,0.951000000000001,"001"
"41784",41.783,0.71875,-0.003625,4.664375,0.00046875,0.945999999999998,"001"
"42693",42.692,0.7,-0.0025,4.86125,0.0003125,0.908999999999999,"001"
"43580",43.579,0.7375,-0.0026875,4.860938,0.000625,0.887,"001"
"44480",44.479,0.753125,-0.005375,3.904063,0.00078125,0.899999999999999,"001"
"45399",45.398,0.78125,-0.00775,3.759375,0.000625,0.919000000000004,"001"
"46330",46.329,0.734375,-0.0058125,4.86125,0.000625,0.930999999999997,"001"
"47252",47.251,0.746875,-0.0033125,4.373125,0.00046875,0.921999999999997,"001"
"48124",48.123,0.709375,0.0010625,4.860625,0.00078125,0.872,"001"
"48950",48.949,0.76875,-0.0039375,4.860938,0.000625,0.826000000000001,"001"
"49803",49.802,0.825,-0.0090625,4.860938,0.00078125,0.853000000000002,"001"
"50707",50.706,0.778125,-0.0035625,4.4,0.00078125,0.904000000000003,"001"
"51638",51.637,0.76875,0.0001875,4.248125,0.00078125,0.930999999999997,"001"
"52535",52.534,0.6875,-0.0095,4.860313,0.000625,0.896999999999998,"001"
"53424",53.423,0.784375,-0.0020625,4.85875,0.000625,0.889000000000003,"001"
"54307",54.306,0.746875,-0.0046875,4.860313,0.00078125,0.882999999999996,"001"
"55121",55.12,0.78125,-0.0055625,4.570625,0.000625,0.814,"001"
"55948",55.947,0.7125,-0.0129375,4.86,0.00078125,0.827000000000005,"001"
"56774",56.773,0.70625,-0.00175,4.270625,0.00078125,0.826000000000001,"001"
"57573",57.572,0.759375,-0.007875,4.860938,0.00046875,0.798999999999999,"001"
"58401",58.4,0.796875,-0.007625,4.860938,0.000625,0.827999999999996,"001"
"59263",59.262,0.84375,-0.0024375,4.860625,0.0003125,0.862000000000002,"001"
"60156",60.155,0.6875,0.0031875,4.860313,0.00046875,0.893000000000001,"001"
"61028",61.027,0.759375,0.0016875,4.568437,0.000625,0.872,"001"
"61846",61.845,0.725,-0.0039375,4.86,0.000625,0.817999999999998,"001"
"62653",62.652,0.690625,-0.009125,4.860625,0.00078125,0.807000000000002,"001"
"63476",63.475,0.75625,-0.002125,4.85,0.000625,0.823,"001"
"64344",64.343,0.81875,-0.00625,4.86125,0.000625,0.868000000000002,"001"
"65264",65.263,0.76875,-0.00175,4.056875,0.000625,0.920000000000002,"001"
"66207",66.206,0.796875,-0.0055625,4.860625,0.000625,0.942999999999998,"001"
"67113",67.112,0.709375,0.00075,4.86,0.00078125,0.905999999999992,"001"
"68028",68.027,0.753125,-0.0018125,4.859375,0.00078125,0.915000000000006,"001"
"68969",68.968,0.796875,-0.0053125,4.860313,0.000625,0.941000000000003,"001"
"69902",69.901,0.803125,0.0008125,4.4075,0.000625,0.932999999999993,"001"
"70788",70.787,0.765625,-0.0073125,4.534688,0.000625,0.88600000000001,"001"
"71672",71.671,0.69375,0.002375,4.859375,0.00046875,0.884,"001"
"72585",72.584,0.78125,-0.006375,4.505,0.00046875,0.912999999999997,"001"
"73511",73.51,0.75625,-6.25e-05,4.860313,0.0003125,0.926000000000002,"001"
"74393",74.392,0.725,-0.002875,4.860938,0.00078125,0.881999999999991,"001"
"75244",75.243,0.784375,-0.0043125,4.860313,0.00078125,0.850999999999999,"001"
"76120",76.119,0.759375,-0.0053125,4.860625,0.000625,0.876000000000005,"001"
"77028",77.027,0.809375,-0.0065,4.858438,0.0009375,0.908000000000001,"001"
"77942",77.941,0.809375,-0.0026875,4.860938,0.0009375,0.914000000000001,"001"
"78812",78.811,0.759375,-0.0049375,4.502187,0.00078125,0.870000000000005,"001"
"79676",79.675,0.7375,-0.0063125,4.860938,0.00078125,0.86399999999999,"001"
"80563",80.562,0.740625,-0.0075625,3.679063,0.00078125,0.887,"001"
"81491",81.49,0.79375,-0.003,4.511563,0.00078125,0.927999999999997,"001"
"82434",82.433,0.821875,-0.00525,4.860625,0.000625,0.943000000000012,"001"
"83351",83.35,0.734375,-0.000875,4.859375,0.0009375,0.916999999999987,"001"
"84205",84.204,0.75,-0.0013125,4.860313,0.00109375,0.853999999999999,"001"
"85007",85.006,0.721875,-0.0081875,4.858125,0.000625,0.802000000000007,"001"
"85829",85.828,0.765625,-0.00575,3.754375,0.000625,0.822000000000003,"001"
"86697",86.696,0.740625,-0.0095,4.860625,0.00078125,0.867999999999995,"001"
"87651",87.65,0.90625,-0.008125,4.86125,0.00046875,0.954000000000008,"001"
"88627",88.626,0.834375,-0.007625,4.860625,0.000625,0.975999999999999,"001"
"89562",89.561,0.775,-0.0159375,4.860625,0.000625,0.935000000000002,"001"
"90462",90.461,0.75,-0.010875,4.631875,0.00109375,0.899999999999991,"001"
"91372",91.371,0.7875,-0.0050625,3.553125,0.00046875,0.909999999999997,"001"
"92289",92.288,0.74375,-0.0295625,4.859063,0.00078125,0.917000000000002,"001"
"93195",93.194,0.728125,-0.0049375,4.859063,0.000625,0.906000000000006,"001"
"94056",94.055,0.73125,-0.00375,4.859687,0.000625,0.861000000000004,"001"
"94920",94.919,0.746875,-0.006625,4.860625,0.00046875,0.86399999999999,"001"
"95818",95.817,0.7625,-0.0015625,4.855313,0.000625,0.897999999999996,"001"
"96745",96.744,0.80625,-0.0049375,4.860625,0.00078125,0.927000000000007,"001"
"97688",97.687,0.759375,-0.0066875,4.860938,0.00046875,0.942999999999998,"001"
"98623",98.622,0.690625,-0.0004375,4.86125,0.00046875,0.935000000000002,"001"
"99508",99.507,0.715625,-0.0056875,4.860625,0.00078125,0.885000000000005,"001"
"100414",100.413,0.75,-0.004125,4.85875,0.00078125,0.905999999999992,"001"
"101350",101.349,0.759375,-0.0036875,4.860313,0.00078125,0.936000000000007,"001"
"102289",102.288,0.7625,-0.0020625,4.859687,0.000625,0.938999999999993,"001"
"103173",103.172,0.778125,-0.017,4.860625,0.000625,0.884,"001"
"104063",104.062,0.771875,-0.011875,4.86125,0.000625,0.890000000000001,"001"
"104956",104.955,0.76875,-0.0030625,4.860313,0.00078125,0.893000000000001,"001"
"105838",105.837,0.75625,-0.000125,4.860625,0.000625,0.882000000000005,"001"
"106681",106.68,0.69375,-0.0018125,4.859687,0.00046875,0.843000000000004,"001"
"107504",107.503,0.71875,-0.003625,4.85875,0.000625,0.822999999999993,"001"
"108350",108.349,0.7875,-0.0045625,4.860625,0.000625,0.846000000000004,"001"
"109250",109.249,0.825,-0.0049375,4.860625,0.000625,0.899999999999991,"001"
"110156",110.155,0.775,-0.005375,4.85875,0.00046875,0.906000000000006,"001"
"111073",111.072,0.759375,-0.000375,4.860313,0.000625,0.917000000000002,"001"
"111949",111.948,0.75625,-0.0024375,4.86,0.000625,0.875999999999991,"001"
"112770",112.769,0.70625,-0.0059375,2.572188,0.000625,0.821000000000012,"001"
"113597",113.596,0.7375,-0.0045,4.860625,0.00078125,0.826999999999998,"001"
"114458",114.457,0.796875,-0.0058125,4.860625,0.000625,0.86099999999999,"001"
"115383",115.382,0.73125,-0.0014375,4.804375,0.00078125,0.925000000000011,"001"
"116323",116.322,0.7125,-0.006375,4.859687,0.00046875,0.939999999999998,"001"
"117227",117.226,0.696875,-0.0013125,3.75125,0.00046875,0.903999999999996,"001"
"118095",118.094,0.725,-0.005375,4.860625,0.000625,0.867999999999995,"001"
"118973",118.972,0.74375,-0.003625,4.035312,0.00078125,0.878,"001"
"119867",119.866,0.734375,-0.003,4.020313,0.00078125,0.894000000000005,"001"
"120778",120.777,0.840625,-0.002875,4.761875,0.00078125,0.911000000000001,"001"
"121693",121.692,0.7875,-0.0055,4.860313,0.00109375,0.914999999999992,"001"
"122582",122.581,0.80625,-0.0053125,4.860938,0.000625,0.88900000000001,"001"
"123493",123.492,0.778125,-0.0028125,4.86,0.0003125,0.911000000000001,"001"
"124417",124.416,0.778125,-0.0064375,4.86,0.00078125,0.923999999999992,"001"
"125342",125.341,0.778125,-0.0105625,4.858438,0.00078125,0.924999999999997,"001"
"126251",126.25,0.79375,0.00225,4.860625,0.000625,0.909000000000006,"001"
"127101",127.1,0.76875,-0.00575,4.859063,0.000625,0.849999999999994,"001"
"127912",127.911,0.7125,-0.0210625,4.860625,0.000625,0.811000000000007,"001"
"128748",128.747,0.6875,0.02825,4.860625,0.00046875,0.836000000000013,"001"
"129631",129.63,0.85625,-0.0035625,4.86125,0.000625,0.882999999999981,"001"
"130578",130.577,0.815625,-0.0025625,4.86125,0.00046875,0.947000000000003,"001"
"131537",131.536,0.834375,-0.0100625,4.860938,0.00078125,0.959000000000003,"001"
"132410",132.409,0.74375,-0.0016875,4.860625,0.00078125,0.87299999999999,"001"
"133279",133.278,0.85625,0.000875,4.86125,0.00046875,0.869,"001"
"134167",134.166,0.675,-0.0061875,4.86,0.000625,0.888000000000005,"001"
"135080",135.079,0.7625,-0.004125,4.83,0.00078125,0.913000000000011,"001"
"136013",136.012,0.784375,-0.0040625,3.7725,0.000625,0.932999999999993,"001"
"136932",136.931,0.81875,-0.0026875,4.860938,0.00078125,0.919000000000011,"001"
"137794",137.793,0.746875,-0.0046875,4.708125,0.000625,0.861999999999995,"001"
"138688",138.687,0.71875,-0.0054375,4.86,0.00046875,0.894000000000005,"001"
"139600",139.599,0.76875,-0.0054375,3.78875,0.00078125,0.911999999999978,"001"
"140518",140.517,0.834375,-0.0031875,4.860625,0.00046875,0.918000000000006,"001"
"141391",141.39,0.7375,-0.0035,3.890938,0.000625,0.87299999999999,"001"
"142239",142.238,0.78125,-0.0021875,4.21125,0.000625,0.848000000000013,"001"
"143117",143.116,0.7875,-0.0044375,4.85875,0.000625,0.878000000000014,"001"
"144038",144.037,0.846875,-0.007,4.860938,0.00078125,0.920999999999992,"001"
"144974",144.973,0.803125,-0.001625,4.859375,0.00078125,0.936000000000007,"001"
"145887",145.886,0.740625,-0.0045,4.836875,0.000625,0.912999999999982,"001"
"146747",146.746,0.734375,-0.002625,4.41875,0.000625,0.860000000000014,"001"
"147615",147.614,0.790625,-0.0024375,4.550625,0.000625,0.867999999999995,"001"
"148509",148.508,0.759375,-0.0051875,4.549688,0.000625,0.894000000000005,"001"
"149421",149.42,0.796875,-0.00175,4.860625,0.00078125,0.911999999999978,"001"
"150315",150.314,0.828125,-0.002125,4.860938,0.000625,0.894000000000005,"001"
"151176",151.175,0.825,-0.0048125,4.705,0.00078125,0.861000000000018,"001"
"152085",152.084,0.725,-0.00275,3.608438,0.00078125,0.908999999999992,"001"
"153028",153.027,0.821875,-0.0068125,4.860938,0.000625,0.942999999999984,"001"
"153975",153.974,0.778125,-0.0018125,4.158125,0.00078125,0.947000000000003,"001"
"154893",154.892,0.834375,-0.005125,4.860938,0.00078125,0.918000000000006,"001"
"155760",155.759,0.76875,-0.0036875,4.860313,0.000625,0.86699999999999,"001"
"156649",156.648,0.765625,-0.0035625,4.86,0.00078125,0.88900000000001,"001"
"157556",157.555,0.88125,-0.00675,4.860938,0.0003125,0.907000000000011,"001"
"158489",158.488,0.746875,-0.0025,4.860625,0.00078125,0.932999999999993,"001"
"159412",159.411,0.83125,-0.0004375,4.860625,0.000625,0.923000000000002,"001"
"160266",160.265,0.70625,-0.002625,4.859687,0.00078125,0.853999999999985,"001"
"161110",161.109,0.778125,-0.0043125,4.860938,0.000625,0.844000000000023,"001"
"161990",161.989,0.75625,-0.004125,4.86,0.00046875,0.879999999999995,"001"
"162922",162.921,0.834375,-0.0084375,4.86125,0.0009375,0.931999999999988,"001"
"163881",163.88,0.76875,0.0029375,4.065625,0.000625,0.959000000000003,"001"
"164778",164.777,0.83125,-0.007375,4.860625,0.00078125,0.896999999999991,"001"
"165660",165.659,0.78125,-0.007125,4.858438,0.000625,0.882000000000005,"001"
"166561",166.56,0.809375,-0.006375,4.860625,0.00078125,0.90100000000001,"001"
"167490",167.489,0.765625,0.03375,3.920625,0.00078125,0.929000000000002,"001"
"168427",168.426,0.740625,-0.0006875,4.860313,0.000625,0.936999999999983,"001"
"169342",169.341,0.8,-0.003,4.860313,0.000625,0.91500000000002,"001"
"170192",170.191,0.709375,-0.0029375,4.86,0.00078125,0.849999999999994,"001"
"171021",171.02,0.834375,-0.0005625,4.860625,0.00078125,0.829000000000008,"001"
"171875",171.874,0.784375,-0.0019375,4.860938,0.000625,0.853999999999985,"001"
"172773",172.772,0.8375,-0.0155625,4.860625,0.00078125,0.897999999999996,"001"
"173705",173.704,0.75,-0.006375,4.859063,0.000625,0.932000000000016,"001"
"174599",174.598,0.7625,-0.0011875,4.860625,0.00078125,0.894000000000005,"001"
"175438",175.437,0.765625,-0.0084375,4.860313,0.000625,0.838999999999999,"001"
"176263",176.262,0.740625,-0.0090625,4.526875,0.00078125,0.824999999999989,"001"
"177101",177.1,0.8,-0.0134375,3.888125,0.00078125,0.837999999999994,"001"
"177968",177.967,0.703125,-0.0041875,4.860313,0.000625,0.867000000000019,"001"
"178854",178.853,0.80625,0.0023125,4.107188,0.00078125,0.885999999999996,"001"
"179705",179.704,0.809375,-0.0105625,4.860625,0.000625,0.850999999999999,"001"
"180572",180.571,0.75625,-0.007625,4.860625,0.00078125,0.86699999999999,"001"
"181453",181.452,0.828125,-0.00275,4.86125,0.000625,0.881,"001"
"182358",182.357,0.8375,0.000875,4.86125,0.000625,0.905000000000001,"001"
"183244",183.243,0.75,0.0016875,4.574063,0.000625,0.885999999999996,"001"
"184094",184.093,0.78125,-0.006875,4.860625,0.000625,0.849999999999994,"001"
"184965",184.964,0.765625,-0.0070625,4.86,0.00078125,0.871000000000009,"001"
"185869",185.868,0.753125,-0.0071875,4.860313,0.00078125,0.903999999999996,"001"
"186793",186.792,0.70625,0.00075,3.782188,0.00046875,0.924000000000007,"001"
"187675",187.674,0.7375,-0.004125,4.859687,0.00078125,0.882000000000005,"001"
"188523",188.522,0.6875,-0.0026875,4.86,0.00078125,0.847999999999985,"001"
"189396",189.395,0.796875,-0.00525,4.860313,0.000625,0.873000000000019,"001"
"190291",190.29,0.7375,-0.0039375,4.85875,0.00046875,0.894999999999982,"001"
"191210",191.209,0.790625,-0.0008125,4.86125,0.000625,0.919000000000011,"001"
"192114",192.113,0.69375,-0.003375,4.860313,0.00046875,0.903999999999996,"001"
"192981",192.98,0.7125,-0.0029375,4.859063,0.00109375,0.86699999999999,"001"
"193881",193.88,0.84375,-0.0104375,4.860313,0.00078125,0.900000000000006,"001"
"194808",194.807,0.73125,-0.044875,4.860313,0.00078125,0.926999999999992,"001"
"195741",195.74,0.80625,-0.0120625,4.859375,0.00078125,0.933000000000021,"001"
"196634",196.633,0.6875,-0.0049375,4.86,0.00078125,0.893000000000001,"001"
"197473",197.472,0.7125,-0.0075625,4.859687,0.00078125,0.838999999999999,"001"
"198336",198.335,0.74375,-0.006875,4.859063,0.000625,0.863,"001"
"199240",199.239,0.796875,-0.0071875,4.620312,0.0009375,0.903999999999996,"001"
"200169",200.168,0.775,-0.00275,4.43,0.000625,0.929000000000002,"001"
"201070",201.069,0.7,0.001,4.4,0.000625,0.900999999999982,"001"
"201920",201.919,0.734375,-0.0094375,3.62375,0.00078125,0.850000000000023,"001"
"202780",202.779,0.734375,-0.00875,4.037813,0.00078125,0.859999999999985,"001"
"203689",203.688,0.759375,-0.013,4.079063,0.00046875,0.908999999999992,"001"
"204643",204.642,0.8,-0.005125,4.860625,0.00046875,0.954000000000008,"001"
"205566",205.565,0.725,-0.0108125,4.557812,0.00046875,0.923000000000002,"001"
"206485",206.484,0.725,-0.01025,4.86,0.00046875,0.919000000000011,"001"
"207418",207.417,0.7125,-0.009,4.86,0.00078125,0.932999999999993,"001"
"208346",208.345,0.778125,-0.0081875,4.830625,0.00078125,0.927999999999997,"001"
"209229",209.228,0.803125,-0.0041875,4.860625,0.00046875,0.88300000000001,"001"
"210054",210.053,0.70625,-0.0055,4.86,0.000625,0.824999999999989,"001"
"210890",210.889,0.80625,-0.0013125,4.07875,0.000625,0.836000000000013,"001"
"211737",211.736,0.771875,-0.0038125,4.3825,0.000625,0.84699999999998,"001"
"212612",212.611,0.821875,-0.0003125,4.860625,0.00078125,0.875,"001"
"213476",213.475,0.8125,-0.00575,4.860938,0.00078125,0.864000000000004,"001"
"214359",214.358,0.7375,-0.004625,4.860625,0.000625,0.88300000000001,"001"
"215294",215.293,0.775,-0.0030625,4.340937,0.00078125,0.935000000000002,"001"
"216263",216.262,0.753125,-0.0051875,4.860313,0.00046875,0.968999999999994,"001"
"217215",217.214,0.79375,-0.001625,4.860625,0.00046875,0.951999999999998,"001"
"218110",218.109,0.8125,-0.001875,4.860313,0.000625,0.89500000000001,"001"
"218968",218.967,0.76875,-0.003,4.860313,0.0009375,0.858000000000004,"001"
"219844",219.843,0.75,-0.00375,4.860313,0.00078125,0.875999999999976,"001"
"220745",220.744,0.846875,0.009125,4.860313,0.00078125,0.90100000000001,"001"
"221668",221.667,0.8,0.0090625,4.859375,0.00046875,0.923000000000002,"001"
"222580",222.579,0.81875,-0.00375,4.860625,0.00078125,0.912000000000006,"001"
"223445",223.444,0.715625,-0.004375,4.85875,0.000625,0.864999999999981,"001"
"224273",224.272,0.76875,-0.0058125,4.860625,0.000625,0.828000000000003,"001"
"225117",225.116,0.740625,-0.0083125,4.845313,0.00078125,0.844000000000023,"001"
"225979",225.978,0.815625,-0.00275,4.860313,0.000625,0.861999999999995,"001"
"226880",226.879,0.75,0.0001875,4.175,0.00078125,0.900999999999982,"001"
"227780",227.779,0.740625,-0.0024375,4.199063,0.00046875,0.900000000000006,"001"
"228642",228.641,0.7125,-0.00475,4.860625,0.000625,0.861999999999995,"001"
"229521",229.52,0.709375,-0.0059375,4.859687,0.000625,0.879000000000019,"001"
"230419",230.418,0.79375,-0.00725,4.410938,0.000625,0.897999999999996,"001"
"231334",231.333,0.784375,-0.0055625,4.860313,0.00078125,0.914999999999992,"001"
"232261",232.26,0.84375,-0.003625,4.860313,0.00078125,0.926999999999992,"001"
"233166",233.165,0.765625,-0.006875,4.860625,0.000625,0.905000000000001,"001"
"234054",234.053,0.7875,-0.0053125,4.040625,0.000625,0.888000000000005,"001"
"234975",234.974,0.859375,-0.005125,4.649375,0.000625,0.920999999999992,"001"
"235919",235.918,0.76875,-0.0043125,4.86,0.000625,0.944000000000017,"001"
"236862",236.861,0.8375,-0.0040625,4.860625,0.000625,0.942999999999984,"001"
"237747",237.746,0.728125,-0.0040625,4.857813,0.00078125,0.885000000000019,"001"
"238642",238.641,0.853125,-0.0075625,4.860938,0.00046875,0.894999999999982,"001"
"239566",239.565,0.75625,0.0220625,4.860313,0.000625,0.924000000000007,"001"
"240471",240.47,0.765625,-0.0034375,4.20125,0.0009375,0.905000000000001,"001"
"241360",241.359,0.834375,-0.0051875,4.860625,0.00046875,0.88900000000001,"001"
"242264",242.263,0.79375,-0.0085,4.445625,0.000625,0.903999999999996,"001"
"243183",243.182,0.76875,-0.003125,4.86,0.00046875,0.918999999999983,"001"
"244114",244.113,0.765625,-0.003375,4.220313,0.0009375,0.931000000000012,"001"
"244990",244.989,0.728125,-0.0080625,4.429688,0.00078125,0.876000000000005,"001"
"245836",245.835,0.80625,-0.006,4.860938,0.00046875,0.846000000000004,"001"
"246701",246.7,0.784375,-0.005625,4.859063,0.00046875,0.864999999999981,"001"
"247624",247.623,0.828125,-0.0036875,4.860625,0.00078125,0.923000000000002,"001"
"248610",248.609,0.746875,-0.001,4.860313,0.000625,0.986000000000018,"001"
"249560",249.559,0.778125,0.0029375,4.86,0.00046875,0.949999999999989,"001"
"250515",250.514,0.75625,0.0040625,4.487188,0.00078125,0.955000000000013,"001"
"251485",251.484,0.81875,-0.0158125,4.860938,0.00078125,0.969999999999999,"001"
"252457",252.456,0.728125,-0.0061875,4.85875,0.00078125,0.97199999999998,"001"
"253374",253.373,0.69375,-0.0056875,4.859063,0.000625,0.917000000000002,"001"
"254237",254.236,0.790625,-0.008625,4.86,0.00078125,0.863,"001"
"255107",255.106,0.75,-0.0094375,4.698125,0.000625,0.870000000000005,"001"
"255998",255.997,0.790625,-0.00125,3.975,0.00046875,0.89100000000002,"001"
"256890",256.889,0.778125,-0.004125,4.860938,0.0003125,0.891999999999996,"001"
"257765",257.764,0.796875,-0.0045,4.86,0.000625,0.875,"001"
"258678",258.677,0.84375,-0.0080625,4.700625,0.00078125,0.913000000000011,"001"
"259619",259.618,0.803125,-0.0110625,3.521875,0.00046875,0.940999999999974,"001"
"260566",260.565,0.728125,-0.00625,4.859063,0.00078125,0.947000000000003,"001"
"261480",261.479,0.796875,-0.008875,4.860938,0.00078125,0.913999999999987,"001"
"262433",262.432,0.7125,-0.0106875,4.859375,0.00078125,0.953000000000031,"001"
"263396",263.395,0.8125,-0.0101875,4.86,0.00078125,0.962999999999965,"001"
"264359",264.358,0.8125,-0.00925,4.213438,0.000625,0.963000000000022,"001"
"265320",265.319,0.85,-0.003625,4.860938,0.000625,0.961000000000013,"001"
"266269",266.268,0.75625,-0.0085,4.860313,0.00046875,0.948999999999955,"001"
"267211",267.21,0.81875,-0.0115625,4.860313,0.000625,0.942000000000007,"001"
"268170",268.169,0.75625,-0.0099375,4.859687,0.00078125,0.959000000000003,"001"
"269136",269.135,0.8125,-0.0079375,4.859063,0.000625,0.966000000000008,"001"
"270073",270.072,0.74375,-0.003,4.859375,0.00078125,0.937000000000012,"001"
"270960",270.959,0.778125,-0.0045,4.727812,0.00046875,0.887,"001"
"271848",271.847,0.765625,-0.0065625,4.859375,0.00046875,0.887999999999977,"001"
"272781",272.78,0.76875,-0.008125,4.859375,0.00046875,0.932999999999993,"001"
"273759",273.758,0.80625,-0.007125,4.86,0.0009375,0.978000000000009,"001"
"274738",274.737,0.771875,-0.0050625,4.860625,0.000625,0.979000000000042,"001"
"275680",275.679,0.765625,-0.00425,4.02625,0.000625,0.94199999999995,"001"
"276559",276.558,0.771875,-0.0100625,4.860313,0.0003125,0.879000000000019,"001"
"277447",277.446,0.815625,-0.0111875,4.860938,0.000625,0.888000000000034,"001"
"278355",278.354,0.775,-0.0065625,4.293438,0.00046875,0.907999999999959,"001"
"279266",279.265,0.79375,-0.0048125,4.86,0.00046875,0.911000000000001,"001"
"280161",280.16,0.725,-0.00125,4.86,0.00046875,0.895000000000039,"001"
"281008",281.007,0.75,-0.00775,4.86,0.00046875,0.84699999999998,"001"
"281863",281.862,0.80625,-0.0079375,4.577188,0.000625,0.855000000000018,"001"
"282746",282.745,0.81875,-0.006875,4.860625,0.00046875,0.882999999999981,"001"
"283653",283.652,0.790625,0.0068125,4.860625,0.00078125,0.906999999999982,"001"
"284541",284.54,0.7875,0.0025625,4.860625,0.000625,0.888000000000034,"001"
"285428",285.427,0.746875,-0.00875,3.92625,0.000625,0.887,"001"
"286349",286.348,0.759375,-0.0070625,4.666563,0.00078125,0.920999999999992,"001"
"287286",287.285,0.815625,-0.0089375,4.859063,0.000625,0.937000000000012,"001"
"288209",288.208,0.759375,-0.0045625,4.860625,0.00046875,0.923000000000002,"001"
"289076",289.075,0.684375,-0.0075625,3.9025,0.00078125,0.866999999999962,"001"
"289903",289.902,0.765625,-0.00725,4.86,0.00046875,0.826999999999998,"001"
"290739",290.738,0.734375,-0.0081875,3.900625,0.00078125,0.836000000000013,"001"
"291601",291.6,0.846875,-0.0059375,4.860938,0.00078125,0.862000000000023,"001"
"292496",292.495,0.815625,-0.0025625,4.860938,0.000625,0.894999999999982,"001"
"293388",293.387,0.828125,-0.004625,4.86,0.00078125,0.891999999999996,"001"
"294249",294.248,0.746875,-0.0071875,4.86,0.000625,0.86099999999999,"001"
"295153",295.152,0.853125,-0.0063125,4.860625,0.00078125,0.903999999999996,"001"
"296070",296.069,0.865625,-0.004,4.860625,0.00078125,0.91700000000003,"001"
"296958",296.957,0.746875,-0.0029375,4.86,0.000625,0.887999999999977,"001"
"297796",297.795,0.740625,-0.0056875,4.582187,0.00078125,0.838000000000022,"001"
"298638",298.637,0.73125,-0.009125,4.859375,0.000625,0.841999999999985,"001"
"299492",299.491,0.80625,-0.005125,4.860313,0.0009375,0.853999999999985,"001"
"300354",300.353,0.79375,5e-04,4.85875,0.00078125,0.862000000000023,"001"
"301177",301.176,0.73125,-0.0051875,4.86,0.000625,0.822999999999979,"001"
"302010",302.009,0.74375,-0.006,4.859687,0.00078125,0.833000000000027,"001"
"302868",302.867,0.78125,-0.003625,4.860625,0.00078125,0.858000000000004,"001"
"303745",303.744,0.759375,-0.001875,4.477812,0.00078125,0.87700000000001,"001"
"304617",304.616,0.73125,-0.0035625,4.85875,0.0009375,0.871999999999957,"001"
"305469",305.468,0.778125,-0.00575,4.860625,0.00078125,0.852000000000032,"001"
"306348",306.347,0.76875,-0.0073125,4.860938,0.000625,0.878999999999962,"001"
"307248",307.247,0.778125,-0.0030625,4.860938,0.00046875,0.900000000000034,"001"
"308140",308.139,0.809375,-0.03075,4.749063,0.00046875,0.891999999999996,"001"
"308999",308.998,0.690625,-0.0749375,4.81125,0.000625,0.85899999999998,"001"
"309873",309.872,0.76875,-0.014375,4.85875,0.00078125,0.874000000000024,"001"
"310776",310.775,0.84375,-0.0020625,4.330938,0.000625,0.902999999999963,"001"
"311699",311.698,0.81875,-0.0064375,4.860313,0.00078125,0.923000000000002,"001"
"312611",312.61,0.784375,-0.0030625,4.219375,0.0009375,0.912000000000035,"001"
"313498",313.497,0.834375,-0.0054375,4.860625,0.000625,0.887,"001"
"314326",314.325,0.7375,-0.0065,4.860313,0.000625,0.827999999999975,"001"
"315159",315.158,0.76875,-0.005625,4.859375,0.00078125,0.833000000000027,"001"
"316025",316.024,0.740625,-0.0126875,4.86,0.0003125,0.865999999999985,"001"
"316955",316.954,0.78125,-0.00875,4.062812,0.000625,0.930000000000007,"001"
"317885",317.884,0.753125,-0.0084375,4.859375,0.00046875,0.930000000000007,"001"
"318847",318.846,0.78125,-0.01025,4.86,0.000625,0.961999999999989,"001"
"319817",319.816,0.828125,-0.011,4.860625,0.00078125,0.96999999999997,"001"
"320806",320.805,0.746875,-0.007125,4.859687,0.00078125,0.989000000000033,"001"
"321765",321.764,0.803125,-0.0058125,4.860313,0.00046875,0.959000000000003,"001"
"322686",322.685,0.728125,-0.0044375,4.859687,0.000625,0.920999999999992,"001"
"323527",323.526,0.75,-0.00775,4.858438,0.00078125,0.841000000000008,"001"
"324363",324.362,0.7875,-0.0078125,4.860313,0.00078125,0.836000000000013,"001"
"325217",325.216,0.78125,-0.0089375,4.86,0.000625,0.853999999999985,"001"
"326096",326.095,0.8,-0.0045,4.860938,0.00078125,0.879000000000019,"001"
"326996",326.995,0.659375,-0.0013125,4.85875,0.00046875,0.899999999999977,"001"
"327876",327.875,0.715625,-0.007,4.86,0.00078125,0.879999999999995,"001"
"328727",328.726,0.7875,-0.0074375,3.910313,0.00078125,0.850999999999999,"001"
"329622",329.621,0.840625,-0.008375,4.86125,0.00078125,0.894999999999982,"001"
"330550",330.549,0.796875,-0.0350625,4.635937,0.00046875,0.927999999999997,"001"
"331492",331.491,0.740625,-0.012875,4.86,0.00046875,0.942000000000007,"001"
"332391",332.39,0.746875,-0.0010625,4.86,0.00078125,0.899000000000001,"001"
"333227",333.226,0.796875,-0.0100625,4.74,0.000625,0.836000000000013,"001"
