"","time","adi_ecg","adi_finger","adi_fro","ard_fro","ibi","id"
"110",0.109,0.7,-0.0058125,4.920625,4.951406,NA,"002"
"978",0.977,0.6875,-0.0065625,4.94,4.952031,0.868,"002"
"1825",1.824,0.678125,-0.0055,4.92,4.951875,0.847,"002"
"2665",2.664,0.709375,-0.00625,4.899063,4.951563,0.84,"002"
"3708",3.707,0.63125,-0.0054375,4.919062,4.951094,1.043,"002"
"4721",4.72,0.7,-0.0066875,4.920938,4.951563,1.013,"002"
"5604",5.603,0.771875,-0.0034375,4.917187,4.952969,0.883,"002"
"6460",6.459,0.675,-0.0054375,4.915,4.951719,0.856,"002"
"7300",7.299,0.68125,-0.0059375,4.899687,4.951875,0.840000000000001,"002"
"8083",8.082,0.76875,-0.006125,4.890625,4.952344,0.783,"002"
"8902",8.901,0.778125,-0.005,4.929062,4.952031,0.818999999999999,"002"
"10040",10.039,0.74375,-0.0055,4.917813,4.952188,1.138,"002"
"11053",11.052,0.834375,-0.0023125,4.901562,4.95125,1.013,"002"
"12035",12.034,0.821875,-0.0049375,4.907188,4.952031,0.982000000000001,"002"
"12965",12.964,0.771875,-0.007,4.915625,4.952031,0.93,"002"
"13788",13.787,0.746875,-0.0055625,4.925937,4.952656,0.823,"002"
"14599",14.598,0.596875,-0.005125,4.938125,4.953594,0.811,"002"
"15529",15.528,0.659375,-0.0050625,4.928125,4.951875,0.93,"002"
"16514",16.513,0.70625,-0.007375,4.928125,4.952344,0.985000000000001,"002"
"17538",17.537,0.871875,-0.004,4.879688,4.952031,1.024,"002"
"18563",18.562,0.7,-0.0058125,4.908125,4.951875,1.025,"002"
"19516",19.515,0.778125,-0.0053125,4.931563,4.951875,0.952999999999999,"002"
"20382",20.381,0.803125,-0.005875,4.940313,4.951875,0.866,"002"
"21194",21.193,0.825,-0.00475,4.928125,4.952031,0.812000000000001,"002"
"22093",22.092,0.64375,-0.0031875,4.928438,4.952188,0.898999999999997,"002"
"23042",23.041,0.696875,-0.004875,4.913125,4.951875,0.949000000000002,"002"
"23938",23.937,0.621875,-0.0065,4.911875,4.952188,0.896000000000001,"002"
"24781",24.78,0.759375,-0.005375,4.907813,4.952344,0.843,"002"
"25708",25.707,0.796875,-0.005375,4.916563,4.951563,0.927,"002"
"26844",26.843,0.665625,-0.007375,4.938125,4.9525,1.136,"002"
"27838",27.837,0.821875,-0.00425,4.919688,4.952031,0.994,"002"
"28796",28.795,0.74375,-0.0036875,4.919688,4.952031,0.958000000000002,"002"
"29740",29.739,0.796875,-0.0038125,4.921563,4.951719,0.943999999999999,"002"
"30634",30.633,0.884375,-0.004375,4.913125,4.952031,0.893999999999998,"002"
"31484",31.483,0.80625,-0.0046875,4.919688,4.951406,0.850000000000001,"002"
"32418",32.417,0.85625,-0.004875,4.90375,4.951719,0.934000000000001,"002"
"33364",33.363,0.846875,-0.006,4.911563,4.952969,0.945999999999998,"002"
"34261",34.26,0.81875,-0.005375,4.900625,4.950625,0.896999999999998,"002"
"35300",35.299,0.884375,-0.0056875,4.912187,4.952031,1.039,"002"
"36360",36.359,0.775,-0.0049375,4.916563,4.951563,1.06,"002"
"37332",37.331,0.865625,-0.0044375,4.900938,4.951719,0.972000000000001,"002"
"38255",38.254,0.94375,-0.00225,4.88875,4.95125,0.922999999999995,"002"
"39168",39.167,0.78125,-0.0055625,4.898125,4.951875,0.913000000000004,"002"
"40025",40.024,0.7375,-0.0065625,4.924688,4.951563,0.856999999999999,"002"
"40853",40.852,0.784375,-0.0046875,4.923438,4.952188,0.827999999999996,"002"
"41792",41.791,0.7875,-0.0059375,4.931563,4.952031,0.939,"002"
"42798",42.797,0.759375,-0.008625,4.935,4.9525,1.006,"002"
"43812",43.811,0.896875,-0.0048125,4.910625,4.952813,1.014,"002"
"44863",44.862,0.784375,-0.004,4.932188,4.952031,1.051,"002"
"45833",45.832,0.846875,-0.006,4.92375,4.951875,0.969999999999999,"002"
"46692",46.691,0.803125,-0.003875,4.929688,4.951719,0.859000000000002,"002"
"47565",47.564,0.775,-0.0043125,4.929688,4.952188,0.872999999999998,"002"
"48464",48.463,0.865625,-0.004875,4.915,4.952031,0.899000000000001,"002"
"49342",49.341,0.771875,-0.006,4.91875,4.951563,0.878,"002"
"50191",50.19,0.765625,-0.004375,4.922187,4.951875,0.848999999999997,"002"
"51178",51.177,0.80625,-0.0061875,4.915625,4.952188,0.987000000000002,"002"
"52219",52.218,0.86875,-0.0063125,4.890313,4.952188,1.041,"002"
"53177",53.176,0.88125,-0.0036875,4.891563,4.952188,0.957999999999998,"002"
"54107",54.106,0.784375,-0.0035,4.909688,4.951719,0.93,"002"
"54985",54.984,0.759375,-0.004875,4.897188,4.952031,0.878,"002"
"55825",55.824,0.75,-0.004,4.909063,4.952188,0.839999999999996,"002"
"56733",56.732,0.7625,-0.0045625,4.903125,4.952031,0.908000000000001,"002"
"57649",57.648,0.846875,-0.00275,4.916875,4.951719,0.916000000000004,"002"
"58548",58.547,0.859375,-0.004875,4.922187,4.953125,0.898999999999994,"002"
"59436",59.435,0.7375,-0.0055625,4.935625,4.952813,0.888000000000005,"002"
"60378",60.377,0.909375,-0.0053125,4.90625,4.952031,0.942,"002"
"61305",61.304,0.85,-0.004125,4.92625,4.951406,0.927,"002"
"62164",62.163,0.95625,-0.0048125,4.925625,4.952188,0.858999999999995,"002"
"63105",63.104,0.8875,-0.003875,4.92,4.952344,0.941000000000003,"002"
"64061",64.06,0.9375,-0.0046875,4.913125,4.952656,0.956000000000003,"002"
"64939",64.938,1.065625,-0.00425,4.894687,4.952031,0.878,"002"
"65831",65.83,0.93125,-0.0050625,4.903437,4.952188,0.891999999999996,"002"
"66771",66.77,0.85625,-0.0060625,4.915625,4.951875,0.939999999999998,"002"
"67646",67.645,0.825,-0.0050625,4.930625,4.951719,0.875,"002"
"68500",68.499,0.859375,-0.0039375,4.925937,4.951719,0.853999999999999,"002"
"69421",69.42,0.809375,-0.0044375,4.915,4.952656,0.921000000000006,"002"
"70322",70.321,0.703125,-0.00625,4.930937,4.951875,0.900999999999996,"002"
"71143",71.142,0.8375,-0.0054375,4.934687,4.952031,0.820999999999998,"002"
"72028",72.027,0.840625,-0.004875,4.91625,4.952031,0.885000000000005,"002"
"72920",72.919,0.803125,-0.0054375,4.901875,4.9525,0.891999999999996,"002"
"73755",73.754,0.8,-0.0061875,4.902188,4.952031,0.835000000000008,"002"
"74569",74.568,0.809375,-0.005375,4.928125,4.951875,0.813999999999993,"002"
"75449",75.448,0.859375,-0.006125,4.916563,4.952344,0.879999999999995,"002"
"76346",76.345,0.81875,-0.0068125,4.930625,4.9525,0.897000000000006,"002"
"77174",77.173,0.828125,-0.0046875,4.945,4.951875,0.828000000000003,"002"
"78019",78.018,0.884375,-0.0053125,4.940625,4.951406,0.844999999999999,"002"
"78930",78.929,0.83125,-0.005125,4.935313,4.951563,0.911000000000001,"002"
"79822",79.821,0.903125,-0.005875,4.940313,4.952031,0.891999999999996,"002"
"80627",80.626,0.8625,-0.0040625,4.931875,4.951719,0.805000000000007,"002"
"81488",81.487,0.80625,-0.0053125,4.932188,4.951719,0.86099999999999,"002"
"82368",82.367,0.815625,-0.005125,4.9,4.952031,0.88000000000001,"002"
"83208",83.207,0.78125,-0.0065625,4.92375,4.951563,0.839999999999989,"002"
"83994",83.993,0.709375,-0.0053125,4.93,4.952188,0.786000000000001,"002"
"84862",84.861,0.7,-0.0058125,4.92,4.952344,0.868000000000009,"002"
"85759",85.758,0.703125,-0.0056875,4.919688,4.952031,0.896999999999991,"002"
"86623",86.622,0.709375,-0.004875,4.935,4.952031,0.864000000000004,"002"
"87434",87.433,0.7625,-0.005625,4.909688,4.951563,0.811000000000007,"002"
"88310",88.309,0.690625,-0.0051875,4.905625,4.952188,0.875999999999991,"002"
"89216",89.215,0.678125,-0.006375,4.907188,4.952188,0.906000000000006,"002"
"90035",90.034,0.75,-0.00375,4.927188,4.952344,0.819000000000003,"002"
"90882",90.881,0.725,-0.0043125,4.939687,4.952031,0.846999999999994,"002"
"91759",91.758,0.73125,-0.0066875,4.932812,4.961719,0.876999999999995,"002"
"92626",92.625,0.71875,-0.0065625,4.931563,4.952344,0.867000000000004,"002"
"93435",93.434,0.746875,-0.0065,4.94125,4.95125,0.808999999999997,"002"
"94303",94.302,0.875,-0.0063125,4.925625,4.952188,0.868000000000009,"002"
"95212",95.211,0.775,-0.005,4.940625,4.952031,0.908999999999992,"002"
"96085",96.084,0.89375,-0.004375,4.926875,4.952188,0.873000000000005,"002"
"96903",96.902,0.8625,-0.0044375,4.924688,4.952031,0.817999999999998,"002"
"97774",97.773,0.790625,-0.005125,4.919688,4.952188,0.870999999999995,"002"
"98635",98.634,0.790625,-0.006125,4.929688,4.95125,0.861000000000004,"002"
"99423",99.422,0.796875,-0.00725,4.936563,4.952969,0.787999999999997,"002"
"100242",100.241,0.8,-0.0055625,4.905938,4.953125,0.819000000000003,"002"
"101132",101.131,0.7875,-0.0061875,4.9175,4.951719,0.890000000000001,"002"
"102005",102.004,0.81875,-0.0059375,4.920625,4.952031,0.873000000000005,"002"
"102817",102.816,0.778125,-0.0063125,4.932188,4.951406,0.811999999999998,"002"
"103695",103.694,0.821875,-0.0051875,4.925,4.951563,0.878,"002"
"104599",104.598,0.634375,-0.005125,4.930625,4.951563,0.903999999999996,"002"
"105462",105.461,0.690625,-0.006875,4.928125,4.951719,0.863,"002"
"106274",106.273,0.646875,-0.004125,4.932188,4.952656,0.811999999999998,"002"
"107165",107.164,0.8125,-0.0048125,4.925937,4.952656,0.891000000000005,"002"
"108069",108.068,0.8625,-0.00525,4.922187,4.952344,0.903999999999996,"002"
"108895",108.894,0.734375,-0.0049375,4.93125,4.951875,0.826000000000008,"002"
"109768",109.767,0.78125,-0.004875,4.911875,4.951875,0.87299999999999,"002"
"110656",110.655,0.628125,-0.0063125,4.937188,4.952188,0.888000000000005,"002"
"111507",111.506,0.89375,-0.0063125,4.91875,4.354687,0.850999999999999,"002"
"112307",112.306,0.940625,-0.0050625,4.9025,4.951875,0.799999999999997,"002"
"113168",113.167,0.8625,-0.0049375,4.924688,4.952031,0.861000000000004,"002"
"114089",114.088,0.853125,-0.00425,4.902188,4.952656,0.920999999999992,"002"
"115005",115.004,0.771875,-0.00575,4.934687,4.952188,0.916000000000011,"002"
"115849",115.848,0.909375,-0.005125,4.90125,4.951875,0.843999999999994,"002"
"116767",116.766,0.753125,-0.0049375,4.93625,4.95125,0.918000000000006,"002"
"117688",117.687,0.821875,-0.0063125,4.93625,4.951719,0.920999999999992,"002"
"118556",118.555,0.8375,-0.0050625,4.935313,4.952344,0.868000000000009,"002"
"119431",119.43,0.890625,-0.0045,4.925313,4.951719,0.875,"002"
"120347",120.346,0.83125,-0.0046875,4.9125,4.951719,0.915999999999997,"002"
"121246",121.245,0.934375,-0.0041875,4.9075,4.952031,0.899000000000001,"002"
"122072",122.071,0.890625,-0.0049375,4.941562,4.952188,0.825999999999993,"002"
"122948",122.947,0.775,-0.0053125,4.939687,4.9525,0.876000000000005,"002"
"123849",123.848,0.78125,-0.00575,4.923438,4.951563,0.900999999999996,"002"
"124737",124.736,0.790625,-0.0048125,4.922187,4.952031,0.888000000000005,"002"
"125593",125.592,0.81875,-0.0063125,4.913125,4.952031,0.855999999999995,"002"
"126544",126.543,0.878125,-0.0043125,4.904688,4.951875,0.951000000000008,"002"
"127432",127.431,0.775,-0.00375,4.932188,4.952813,0.887999999999991,"002"
"128253",128.252,0.834375,-0.005125,4.910625,4.952031,0.821000000000012,"002"
"129175",129.174,0.76875,-0.0044375,4.9275,4.952188,0.921999999999997,"002"
"130112",130.111,0.7875,-0.0050625,4.92625,4.951875,0.936999999999983,"002"
"131021",131.02,0.815625,-0.0038125,4.934063,4.9525,0.90900000000002,"002"
"131820",131.819,0.81875,-0.0049375,4.930313,4.95375,0.798999999999978,"002"
"132694",132.693,0.78125,-0.0058125,4.932812,4.952344,0.874000000000024,"002"
"133557",133.556,0.853125,-0.0056875,4.900313,4.951875,0.863,"002"
"134378",134.377,0.9625,-0.0055,4.882187,4.952188,0.820999999999998,"002"
"135213",135.212,0.834375,-0.0055,4.925937,4.951406,0.83499999999998,"002"
"136096",136.095,0.85,-0.00525,4.899687,4.951875,0.88300000000001,"002"
"136990",136.989,0.8125,-0.0063125,4.916563,4.952031,0.894000000000005,"002"
"137797",137.796,0.94375,-0.0065625,4.897188,4.951875,0.806999999999988,"002"
"138637",138.636,0.828125,-0.006,4.919688,4.950625,0.840000000000003,"002"
"139515",139.514,0.734375,-0.0063125,4.922813,4.951563,0.878000000000014,"002"
"140352",140.351,0.890625,-0.00525,4.919688,4.953125,0.836999999999989,"002"
"141164",141.163,0.7875,-0.005875,4.921563,4.951719,0.812000000000012,"002"
"142039",142.038,0.96875,-0.005625,4.895625,4.958438,0.875,"002"
"142917",142.916,0.85,-0.007,4.938125,4.951875,0.877999999999986,"002"
"143717",143.716,0.9375,-0.006125,4.934687,4.951875,0.800000000000011,"002"
"144562",144.561,0.653125,-0.005,4.929688,4.952969,0.844999999999999,"002"
"145432",145.431,0.7625,-0.0056875,4.915625,4.952344,0.870000000000005,"002"
"146303",146.302,0.853125,-0.005875,4.931875,4.951875,0.870999999999981,"002"
"147124",147.123,0.825,-0.0053125,4.936563,4.952031,0.820999999999998,"002"
"148021",148.02,0.796875,-0.0055625,4.919688,4.952031,0.89700000000002,"002"
"148917",148.916,0.86875,-0.0065,4.92625,4.952344,0.895999999999987,"002"
"149722",149.721,0.925,-0.0080625,4.933438,4.951719,0.805000000000007,"002"
"150507",150.506,0.890625,-0.0055,4.905,4.100156,0.784999999999997,"002"
"151362",151.361,0.615625,-0.0059375,4.937188,4.952344,0.85499999999999,"002"
"152235",152.234,0.703125,-0.0055625,4.924688,4.952344,0.873000000000019,"002"
"153060",153.059,0.671875,-0.0048125,4.938125,4.953125,0.824999999999989,"002"
"153884",153.883,0.7,-0.0065,4.9225,4.9525,0.824000000000012,"002"
"154755",154.754,0.5875,-0.00575,4.935625,4.952031,0.870999999999981,"002"
"155633",155.632,0.8,-0.006625,4.889688,4.952813,0.878000000000014,"002"
"156437",156.436,0.74375,-0.0054375,4.920625,4.951563,0.804000000000002,"002"
"157291",157.29,0.75,-0.00575,4.914063,4.952031,0.853999999999985,"002"
"158164",158.163,0.734375,-0.0055625,4.925625,4.9525,0.873000000000019,"002"
"159004",159.003,0.6625,-0.0061875,4.94125,4.952031,0.839999999999975,"002"
"159771",159.77,0.7,-0.0056875,4.9325,4.952188,0.767000000000024,"002"
"160618",160.617,0.66875,-0.0059375,4.929062,4.952344,0.84699999999998,"002"
"161472",161.471,0.6,-0.006,4.946562,4.951563,0.854000000000013,"002"
"162274",162.273,0.75625,-0.006875,4.940625,4.952188,0.801999999999992,"002"
"163067",163.066,0.63125,-0.006375,4.955,4.952188,0.793000000000006,"002"
"163935",163.934,0.828125,-0.006,4.92625,4.961563,0.867999999999995,"002"
"164820",164.819,0.734375,-0.006625,4.933438,4.951875,0.884999999999991,"002"
"165646",165.645,0.778125,-0.006875,4.933125,4.951875,0.826000000000022,"002"
"166437",166.436,0.734375,-0.006875,4.9425,4.952031,0.790999999999997,"002"
"167295",167.294,0.73125,-0.006125,4.932188,4.952031,0.858000000000004,"002"
"168154",168.153,0.728125,-0.0079375,4.930625,4.952031,0.85899999999998,"002"
"168945",168.944,0.771875,-0.00725,4.94125,4.952344,0.790999999999997,"002"
"169739",169.738,0.809375,-0.0058125,4.925937,4.951563,0.794000000000011,"002"
"170596",170.595,0.746875,-0.00625,4.92,4.951875,0.856999999999999,"002"
"171459",171.458,0.740625,-0.007,4.907813,3.866563,0.863,"002"
"172276",172.275,0.6625,-0.006625,4.905,4.951719,0.817000000000007,"002"
"173109",173.108,0.634375,-0.0064375,4.9,4.952656,0.832999999999998,"002"
"174005",174.004,0.746875,-0.006125,4.907188,4.951875,0.895999999999987,"002"
"174895",174.894,0.709375,-0.006,4.930625,4.951094,0.890000000000015,"002"
"175706",175.705,0.74375,-0.0064375,4.918125,4.952813,0.811000000000007,"002"
"176539",176.538,0.559375,-0.006375,4.920625,4.951719,0.832999999999998,"002"
"177401",177.4,0.559375,-0.0059375,4.91875,4.951563,0.861999999999995,"002"
"178255",178.254,0.684375,-0.0065625,4.931563,4.952031,0.853999999999985,"002"
"179045",179.044,0.80625,-0.006,4.917813,4.952188,0.79000000000002,"002"
"179909",179.908,0.70625,-0.0068125,4.925313,4.952344,0.863999999999976,"002"
"180787",180.786,0.615625,-0.00475,4.93625,4.951875,0.878000000000014,"002"
"181627",181.626,0.796875,-0.0058125,4.924688,4.952344,0.840000000000003,"002"
"182453",182.452,0.834375,-0.0060625,4.914375,4.952031,0.825999999999993,"002"
"183354",183.353,0.75,-0.0058125,4.93,4.952188,0.90100000000001,"002"
"184249",184.248,0.865625,-0.00425,4.897188,4.952188,0.894999999999982,"002"
"185079",185.078,0.871875,-0.006,4.93,4.952188,0.830000000000013,"002"
"185923",185.922,0.878125,-0.0055625,4.929688,4.95375,0.843999999999994,"002"
"186792",186.791,0.846875,-0.006,4.915625,4.9525,0.869,"002"
"187653",187.652,0.73125,-0.0060625,4.92875,4.95125,0.86099999999999,"002"
"188446",188.445,0.740625,-0.0061875,4.936875,4.952031,0.793000000000006,"002"
"189307",189.306,0.690625,-0.006125,4.930625,4.952031,0.861000000000018,"002"
"190183",190.182,0.75625,-0.007125,4.912187,4.9525,0.875999999999976,"002"
"191056",191.055,0.81875,-0.006125,4.917813,4.952188,0.873000000000019,"002"
"191891",191.89,0.76875,-0.006125,4.9175,4.951875,0.83499999999998,"002"
"192786",192.785,0.609375,-0.006375,4.930625,4.952031,0.89500000000001,"002"
"193699",193.698,0.775,-0.005125,4.890313,4.952656,0.913000000000011,"002"
"194560",194.559,0.6625,-0.00525,4.91125,4.952031,0.86099999999999,"002"
"195447",195.446,0.715625,-0.005125,4.927188,4.952031,0.887,"002"
"196372",196.371,0.6375,-0.0058125,4.933125,4.951875,0.925000000000011,"002"
"197243",197.242,0.784375,-0.0064375,4.916563,4.952188,0.870999999999981,"002"
"198076",198.075,0.621875,-0.005875,4.9375,4.951719,0.832999999999998,"002"
"198977",198.976,0.6375,-0.006,4.938125,4.951875,0.90100000000001,"002"
"199839",199.838,0.696875,-0.006375,4.943125,4.952344,0.861999999999995,"002"
"200648",200.647,0.70625,-0.0068125,4.947813,4.952188,0.808999999999997,"002"
"201526",201.525,0.759375,-0.0065,4.931563,4.951563,0.878000000000014,"002"
"202434",202.433,0.6625,-0.006,4.938125,4.952031,0.907999999999987,"002"
"203293",203.292,0.759375,-0.0061875,4.938125,4.952813,0.859000000000009,"002"
"204159",204.158,0.646875,-0.0059375,4.940625,4.952031,0.865999999999985,"002"
"205075",205.074,0.790625,-0.006,4.924062,4.951563,0.916000000000025,"002"
"205995",205.994,0.78125,-0.006125,4.932188,4.952188,0.919999999999987,"002"
"206812",206.811,0.890625,-0.00675,4.924062,4.9525,0.817000000000007,"002"
"207701",207.7,0.9375,-0.0066875,4.914688,4.951875,0.888999999999982,"002"
"208598",208.597,0.846875,-0.0059375,4.907188,4.952344,0.89700000000002,"002"
"209445",209.444,0.80625,-0.006875,4.9275,4.953281,0.84699999999998,"002"
"210238",210.237,0.84375,-0.006625,4.935625,4.951875,0.793000000000006,"002"
"211085",211.084,0.865625,-0.00625,4.927188,4.952188,0.847000000000008,"002"
"211975",211.974,0.81875,-0.0071875,4.9225,4.9525,0.889999999999986,"002"
"212817",212.816,0.928125,-0.0069375,4.9,4.9525,0.842000000000013,"002"
"213643",213.642,0.721875,-0.0069375,4.922813,4.952188,0.825999999999993,"002"
"214533",214.532,0.834375,-0.00725,4.89375,4.952031,0.890000000000015,"002"
"215413",215.412,0.9,-0.0071875,4.917813,4.9525,0.879999999999995,"002"
"216217",216.216,0.871875,-0.0079375,4.925625,4.951563,0.804000000000002,"002"
"217095",217.094,0.825,-0.006375,4.91,4.952031,0.877999999999986,"002"
"217999",217.998,0.734375,-0.0069375,4.919062,4.951875,0.903999999999996,"002"
"218886",218.885,0.90625,-0.0066875,4.916875,4.951875,0.887,"002"
"219695",219.694,0.99375,-0.007375,4.9175,4.951875,0.808999999999997,"002"
"220569",220.568,0.7375,-0.00625,4.93,4.952969,0.874000000000024,"002"
"221466",221.465,0.796875,-0.006625,4.915625,4.951875,0.896999999999991,"002"
"222353",222.352,0.9125,-0.0075,4.902188,4.951875,0.887,"002"
"223160",223.159,0.909375,-0.0063125,4.928125,4.952188,0.806999999999988,"002"
"224026",224.025,0.803125,-0.0069375,4.922187,4.952188,0.866000000000014,"002"
"224911",224.91,0.778125,-0.0065,4.917187,4.952188,0.884999999999991,"002"
"225781",225.78,0.759375,-0.006375,4.93125,4.962031,0.870000000000005,"002"
"226579",226.578,0.78125,-0.00775,4.940313,4.951875,0.798000000000002,"002"
"227475",227.474,0.66875,-0.0068125,4.949375,4.859687,0.895999999999987,"002"
"228379",228.378,0.865625,-0.006375,4.924688,4.849219,0.903999999999996,"002"
"229210",229.209,0.81875,-0.008125,4.940313,4.9525,0.831000000000017,"002"
"230022",230.021,0.828125,-0.007375,4.933125,4.9525,0.811999999999983,"002"
"230902",230.901,0.8,-0.0066875,4.944687,4.952344,0.880000000000024,"002"
"231796",231.795,0.8125,-0.0065,4.935938,4.952188,0.893999999999977,"002"
"232612",232.611,0.90625,-0.00625,4.92625,4.953281,0.816000000000003,"002"
"233476",233.475,0.75625,-0.0063125,4.927188,4.952031,0.864000000000004,"002"
"234347",234.346,0.803125,-0.0068125,4.908437,4.951406,0.871000000000009,"002"
"235177",235.176,0.065625,-0.0070625,4.959688,4.952188,0.829999999999984,"002"
"235965",235.964,0.709375,-0.007125,4.91625,4.952969,0.788000000000011,"002"
"236810",236.809,0.65625,-0.0073125,4.910625,4.951719,0.844999999999999,"002"
"237666",237.665,0.7625,-0.0068125,4.923125,4.79,0.855999999999995,"002"
"238478",238.477,0.175,-0.00675,4.959062,4.951875,0.812000000000012,"002"
"239268",239.267,0.86875,-0.0083125,4.930625,4.952656,0.789999999999992,"002"
"240139",240.138,0.828125,-0.0073125,4.920625,4.952344,0.871000000000009,"002"
"241019",241.018,0.84375,-0.007625,4.914063,4.952031,0.879999999999995,"002"
"241831",241.83,-0.021875,-0.00825,4.96125,4.951875,0.812000000000012,"002"
"242642",242.641,0.8,-0.0075,4.922187,4.955469,0.810999999999979,"002"
"243482",243.481,0.8375,-0.007625,4.917813,4.9525,0.840000000000003,"002"
"244306",244.305,0.121875,-0.0083125,4.955938,4.952031,0.824000000000012,"002"
"245077",245.076,0.290625,-0.00775,4.955,4.952813,0.770999999999987,"002"
"245898",245.897,0.734375,-0.007625,4.92375,4.9525,0.820999999999998,"002"
"246769",246.768,0.81875,-0.0080625,4.902188,4.952031,0.871000000000009,"002"
"247621",247.62,0.825,-0.007875,4.928125,4.952344,0.852000000000004,"002"
"248411",248.41,0.80625,-0.00825,4.9225,4.952188,0.789999999999992,"002"
"249270",249.269,0.678125,-0.00775,4.943125,4.952188,0.859000000000009,"002"
"250134",250.133,0.58125,-0.0068125,4.948125,4.952344,0.864000000000004,"002"
"250936",250.935,0.04375,-0.0075625,4.959688,4.951563,0.801999999999992,"002"
"251735",251.734,0.7,-0.007625,4.929688,3.606406,0.799000000000007,"002"
"252566",252.565,0.678125,-0.00775,4.93125,4.951719,0.830999999999989,"002"
"253406",253.405,-0.065625,-0.0074375,4.960625,4.951719,0.840000000000003,"002"
"254168",254.167,0.028125,-0.0094375,4.960625,4.951563,0.762,"002"
"254958",254.957,0.75,-0.0085625,4.939687,4.951094,0.789999999999992,"002"
"255772",255.771,0.684375,-0.0085,4.944687,4.951563,0.813999999999993,"002"
"256598",256.597,0.803125,-0.008375,4.93875,4.952344,0.825999999999993,"002"
"257359",257.358,0.75,-0.009375,4.947188,4.951406,0.761000000000024,"002"
"258159",258.158,0.703125,-0.008625,4.934063,4.952188,0.800000000000011,"002"
"259002",259.001,0.621875,-0.0078125,4.944375,4.952188,0.842999999999961,"002"
"259806",259.805,-0.128125,-0.00825,4.9625,4.952813,0.80400000000003,"002"
"260580",260.579,0.725,-0.0080625,4.945313,4.951875,0.774000000000001,"002"
"261463",261.462,0.8,-0.0075625,4.922187,4.951406,0.882999999999981,"002"
"262383",262.382,0.79375,-0.0060625,4.92875,4.952031,0.920000000000016,"002"
"263195",263.194,0.04375,-0.0073125,4.959062,4.951563,0.812000000000012,"002"
"264028",264.027,0.925,-0.0073125,4.895,4.951875,0.83299999999997,"002"
"264891",264.89,0.7875,-0.008125,4.8975,4.951406,0.863,"002"
"265726",265.725,-0.00625,-0.0076875,4.957187,4.952188,0.835000000000036,"002"
"266491",266.49,0.7375,-0.0080625,4.922187,4.951875,0.764999999999986,"002"
"267328",267.327,0.821875,-0.00775,4.909688,4.952188,0.836999999999989,"002"
"268180",268.179,0.696875,-0.0093125,4.93,4.952344,0.851999999999975,"002"
"268947",268.946,-0.040625,-0.0090625,4.961875,4.952031,0.767000000000053,"002"
"269744",269.743,0.69375,-0.008625,4.935313,4.951719,0.796999999999969,"002"
"270648",270.647,0.65,-0.0070625,4.908437,4.951875,0.903999999999996,"002"
"271514",271.513,0.79375,-0.007125,4.894063,4.952188,0.865999999999985,"002"
"272323",272.322,0.815625,-0.0085625,4.918125,4.952031,0.809000000000026,"002"
"273172",273.171,0.8375,-0.008125,4.915,4.951563,0.84899999999999,"002"
"274028",274.027,0.93125,-0.0075625,4.907188,4.904844,0.855999999999995,"002"
"274824",274.823,-0.0875,-0.0085,4.95875,4.952031,0.795999999999992,"002"
"275616",275.615,0.75625,-0.0071875,4.923125,4.951875,0.79200000000003,"002"
"276454",276.453,0.61875,-0.007625,4.930313,4.952344,0.837999999999965,"002"
"277306",277.305,-0.096875,-0.00725,4.961563,4.951563,0.852000000000032,"002"
"278098",278.097,0.059375,-0.007875,4.960625,4.035469,0.791999999999973,"002"
"278929",278.928,0.890625,-0.0075,4.933125,4.951875,0.831000000000017,"002"
"279804",279.803,0.859375,-0.0081875,4.917187,4.952813,0.875,"002"
"280640",280.639,0.490625,-0.0080625,4.944687,4.951563,0.836000000000013,"002"
"281430",281.429,0.096875,-0.0074375,4.957813,4.951094,0.789999999999964,"002"
"282270",282.269,0.70625,-0.0078125,4.929062,4.9525,0.840000000000032,"002"
"283134",283.133,0.825,-0.0090625,4.91625,4.951719,0.863999999999976,"002"
"283940",283.939,0.240625,-0.006875,4.958125,4.951563,0.80600000000004,"002"
"284766",284.765,0.834375,-0.006125,4.925625,4.952188,0.825999999999965,"002"
"285636",285.635,0.759375,-0.007625,4.91625,4.961563,0.870000000000005,"002"
"286498",286.497,-0.153125,-0.008,4.9625,4.951563,0.862000000000023,"002"
"287288",287.287,-0.015625,-0.0075625,4.962187,4.951719,0.789999999999964,"002"
"288140",288.139,0.690625,-0.0084375,4.942813,4.952031,0.852000000000032,"002"
"289020",289.019,0.784375,-0.00825,4.925,4.951875,0.879999999999995,"002"
"289849",289.848,0.00625,-0.009375,4.960625,4.950781,0.829000000000008,"002"
"290672",290.671,0.83125,-0.0078125,4.932812,4.9525,0.822999999999979,"002"
"291533",291.532,0.734375,-0.0085,4.91375,4.951719,0.86099999999999,"002"
"292354",292.353,0.16875,-0.0084375,4.955938,4.952188,0.821000000000026,"002"
"293142",293.141,-0.04375,-0.0079375,4.960312,4.951875,0.788000000000011,"002"
"293965",293.964,0.7375,-0.0075,4.922813,4.962187,0.822999999999979,"002"
"294812",294.811,-0.03125,-0.008125,4.959688,4.952813,0.84699999999998,"002"
"295586",295.585,0.746875,-0.008875,4.93,4.952344,0.774000000000001,"002"
"296395",296.394,0.86875,-0.0074375,4.92875,4.952188,0.809000000000026,"002"
"297240",297.239,0.840625,-0.008125,4.917187,4.9525,0.84499999999997,"002"
"298071",298.07,0.034375,-0.0078125,4.960625,4.951719,0.831000000000017,"002"
"298830",298.829,0.184375,-0.0095,4.960938,4.951406,0.759000000000015,"002"
"299644",299.643,0.85,-0.0075,4.926875,4.951875,0.813999999999965,"002"
"300503",300.502,0.6125,-0.0078125,4.936875,4.951406,0.859000000000037,"002"
"301364",301.363,0.78125,-0.0081875,4.933438,4.951875,0.86099999999999,"002"
"302174",302.173,0,-0.007875,4.960938,4.951875,0.810000000000002,"002"
"303040",303.039,0.784375,-0.0080625,4.924688,4.952031,0.865999999999985,"002"
"303941",303.94,0.771875,-0.007625,4.909063,4.951875,0.90100000000001,"002"
"304774",304.773,0.484375,-0.007875,4.935625,4.951875,0.833000000000027,"002"
"305600",305.599,0.734375,-0.007625,4.91,4.951875,0.825999999999965,"002"
"306468",306.467,0.621875,-0.0075625,4.922187,4.951719,0.867999999999995,"002"
"307341",307.34,-0.36875,-0.0073125,-0.0025,4.951406,0.87299999999999,"002"
"308131",308.13,-0.090625,-0.00825,-0.0025,4.95125,0.79000000000002,"002"
"308978",308.977,0.696875,-0.007375,4.892812,4.9525,0.84699999999998,"002"
"309878",309.877,0.8625,-0.0070625,4.892812,4.952188,0.900000000000034,"002"
"310750",310.749,0.290625,-0.008,4.9575,4.952656,0.872000000000014,"002"
"311564",311.563,0.95,-0.0055,4.924688,4.951563,0.813999999999965,"002"
"312452",312.451,0.65,-0.0075625,4.937812,4.952344,0.888000000000034,"002"
"313332",313.331,0.6625,-0.007375,4.94125,4.952031,0.879999999999995,"002"
"314162",314.161,-0.090625,-0.0071875,4.96125,4.951719,0.829999999999984,"002"
"315014",315.013,0.715625,-0.0070625,4.937812,4.950938,0.851999999999975,"002"
"315951",315.95,0.909375,-0.0056875,4.938438,4.951563,0.937000000000012,"002"
"316886",316.885,1.040625,-0.0061875,4.943125,4.952969,0.935000000000002,"002"
"317740",317.739,0.20625,-0.00675,4.962187,4.952031,0.853999999999985,"002"
"318629",318.628,1.021875,-0.0070625,4.935625,4.952188,0.88900000000001,"002"
"319545",319.544,0.89375,-0.006625,4.928125,4.952344,0.915999999999997,"002"
"320425",320.424,0.9,-0.0066875,4.932188,4.952031,0.879999999999995,"002"
"321258",321.257,0.8875,-0.0066875,4.904688,4.952031,0.833000000000027,"002"
"322157",322.156,0.70625,-0.007125,4.931563,4.952656,0.899000000000001,"002"
"323059",323.058,0.678125,-0.0066875,4.910938,4.952344,0.901999999999987,"002"
"323918",323.917,0.6625,-0.006875,4.904688,4.952031,0.85899999999998,"002"
"324840",324.839,0.88125,-0.0065625,4.895625,4.952031,0.922000000000025,"002"
"325770",325.769,1.046875,-0.006875,4.915625,4.952656,0.930000000000007,"002"
"326639",326.638,0.7375,-0.007125,4.939063,4.951563,0.868999999999971,"002"
"327479",327.478,0.803125,-0.007375,4.934687,4.952031,0.840000000000032,"002"
"328357",328.356,0.809375,-0.0068125,4.879688,4.952344,0.877999999999986,"002"
"329223",329.222,0.43125,-0.007375,-0.0021875,4.951875,0.865999999999985,"002"
"330027",330.026,0,-0.0075625,-0.0025,4.952188,0.80400000000003,"002"
"330872",330.871,0.68125,-0.0069375,4.86,4.952188,0.84499999999997,"002"
"331742",331.741,0.671875,-0.007625,4.915312,4.952031,0.870000000000005,"002"
"332582",332.581,0.54375,-0.0078125,4.943437,4.959688,0.840000000000032,"002"
