"","X.x","time_ardmob","adi_ecg.x","adi_finger.x","adi_fro.x","ard_fro.x","ibis_ardmob","id.x","ibi_num","X.y","time_adi_fro","adi_ecg.y","adi_finger.y","adi_fro.y","ard_fro.y","ibis_adi_fro","id.y","time_adi_ecg","ibis_adi_ecg","id.x.x","time_adi_fs","ibis_fs_ecg","id.y.y"
"1",104,103,-0.48125,-0.0251875,4.965,4.954375,NA,"001",1,80,79,0.73125,-0.0225,4.859687,0.00046875,NA,"001",88,NA,"001",340,NA,"001"
"2",930,929,-0.515625,-0.0045625,4.965625,4.955938,826,"001",2,907,906,0.778125,-0.0019375,4.861562,0.00078125,827,"001",912,824,"001",1163,823,"001"
"3",1765,1764,-0.30625,-0.010375,4.965,4.955469,835,"001",3,1744,1743,0.790625,-0.0076875,4.86125,0.0009375,837,"001",1748,836,"001",2004,841,"001"
"4",2610,2609,-0.453125,-0.0135,4.965625,4.955469,845,"001",4,2586,2585,0.74375,-0.0405,4.456563,0.00078125,842,"001",2591,843,"001",2714,710,"001"
"5",3483,3482,-0.515625,-0.0123125,4.965,4.954844,873,"001",5,3460,3459,0.784375,-0.0125,4.86125,0.00078125,874,"001",3464,873,"001",3724,1010,"001"
"6",4398,4397,-0.421875,-0.0055625,4.965625,4.955312,915,"001",6,4375,4374,0.684375,-0.0038125,4.860313,0.0009375,915,"001",4381,917,"001",4632,908,"001"
"7",5335,5334,0.446875,-0.000875,4.962813,4.957656,936.999999999999,"001",7,5318,5317,0.76875,-0.00025,4.860938,0.00078125,943.000000000001,"001",5324,943,"001",5580,948,"001"
"8",6270,6269,-0.4,-0.0028125,4.965,4.954844,935,"001",8,6248,6247,0.75,-0.0035,4.852812,0.00078125,930,"001",6253,929,"001",6514,934,"001"
"9",7167,7166,0.26875,0.0015,4.963125,4.95625,897,"001",9,7149,7148,0.68125,0.00125,4.860313,0.00046875,901,"001",7154,901,"001",7421,907,"001"
"10",8076,8075,0.46875,-0.007625,4.961563,4.955469,908.999999999999,"001",10,8060,8059,0.75,-0.004875,4.779375,0.000625,911,"001",8065,911,"001",8322,901,"001"
"11",9022,9021,0.55,-0.0039375,4.961875,4.956563,946.000000000002,"001",11,9006,9005,0.74375,-0.0041875,4.86,0.000625,946.000000000002,"001",9011,946,"001",9267,945,"001"
"12",9995,9994,0.884375,-0.0045625,4.960625,4.955938,972.999999999999,"001",12,9981,9980,0.696875,-0.006375,4.86125,0.000625,975,"001",9986,975,"001",10240,973,"001"
"13",10970,10969,0.671875,-0.004,4.961875,4.955,975,"001",13,10954,10953,0.7375,-0.0021875,4.859375,0.000625,972.999999999999,"001",10960,974,"001",11220,980,"001"
"14",11924,11923,0.40625,-0.002,4.963438,4.955469,954.000000000001,"001",14,11907,11906,0.734375,-0.0035,4.552812,0.000625,953.000000000001,"001",11913,953,"001",12175,955,"001"
"15",12844,12843,-0.0625,-0.0065,4.965,4.956094,920,"001",15,12824,12823,0.725,-0.0074375,4.859375,0.00078125,917,"001",12829,916,"001",13095,920,"001"
"16",13725,13724,0.45625,-0.0073125,4.961875,4.955,881,"001",16,13709,13708,0.775,-0.0084375,4.86125,0.000625,885,"001",13714,885,"001",13974,879,"001"
"17",14628,14627,0.284375,-0.0025625,4.963125,4.955469,903,"001",17,14610,14609,0.765625,-0.0029375,4.859375,0.0009375,901,"001",14616,902,"001",14868,894,"001"
"18",15563,15562,0.55625,-0.003875,4.962187,4.929688,934.999999999999,"001",18,15547,15546,0.753125,-0.001,4.835938,0.000625,936.999999999999,"001",15552,936,"001",15812,944,"001"
"19",16503,16502,0.296875,-0.0019375,4.962813,4.955781,940,"001",19,16486,16485,0.7125,-0.0015625,3.747187,0.000625,939,"001",16491,939,"001",16752,940,"001"
"20",17426,17425,-0.49375,0.000625,4.965313,4.956094,923.000000000002,"001",20,17403,17402,0.696875,0.0014375,3.5275,0.00078125,917.000000000002,"001",17408,917,"001",17671,919,"001"
"21",18309,18308,-0.4875,0.0043125,4.965625,4.954844,882.999999999999,"001",21,18286,18285,0.76875,0.025625,4.861875,0.000625,882.999999999999,"001",18291,883,"001",18374,703,"001"
"22",19212,19211,-0.4625,-0.0126875,4.965313,4.955,902.999999999999,"001",22,19189,19188,0.775,-0.0145,4.86125,0.000625,902.999999999999,"001",19194,903,"001",19449,1075,"001"
"23",20130,20129,-0.26875,-0.0099375,4.965,4.957031,918.000000000003,"001",23,20109,20108,0.778125,-0.009,4.86125,0.00078125,920.000000000002,"001",20114,920,"001",20373,924,"001"
"24",21053,21052,-0.478125,-0.0050625,4.965937,4.955,922.999999999998,"001",24,21030,21029,0.815625,-0.004625,4.86125,0.000625,920.999999999999,"001",21035,921,"001",21294,921,"001"
"25",21971,21970,-0.38125,-0.0051875,4.965625,4.957031,917.999999999999,"001",25,21949,21948,0.734375,-0.00275,4.861562,0.000625,919,"001",21954,919,"001",22211,917,"001"
"26",22880,22879,-0.415625,-6.25e-05,4.965,4.956406,909.000000000002,"001",26,22858,22857,0.765625,0.002375,4.86125,0.000625,908.999999999999,"001",22863,909,"001",23125,914,"001"
"27",23737,23736,-0.21875,-0.0040625,4.964688,4.955312,856.999999999999,"001",27,23715,23714,0.721875,-0.0040625,4.233438,0.000625,856.999999999999,"001",23721,858,"001",23988,863,"001"
"28",24572,24571,-0.44375,-0.0045625,4.965937,4.955312,835.000000000001,"001",28,24548,24547,0.73125,-0.006625,2.86625,0.000625,833.000000000002,"001",24554,833,"001",24815,827,"001"
"29",25417,25416,-0.425,-0.0066875,4.965,4.955469,844.999999999999,"001",29,25393,25392,0.76875,-0.0060625,3.979062,0.000625,844.999999999999,"001",25399,845,"001",25660,845,"001"
"30",26316,26315,-0.421875,-0.0015625,4.965625,4.955,899.000000000001,"001",30,26291,26290,0.759375,-0.000625,4.860625,0.00046875,898,"001",26297,898,"001",26549,889,"001"
"31",27275,27274,0.228125,-0.005125,4.96375,4.9575,959,"001",31,27255,27254,0.828125,-0.003375,4.4725,0.00078125,964.000000000002,"001",27261,964,"001",27523,974,"001"
"32",28259,28258,-0.209375,0.0029375,4.965,4.956406,983.999999999998,"001",32,28237,28236,0.81875,0,4.86125,0.000625,981.999999999999,"001",28243,982,"001",28500,977,"001"
"33",29194,29193,0.48125,-0.00175,4.963125,4.955469,935.000000000002,"001",33,29176,29175,0.696875,-0.008875,4.86,0.000625,939,"001",29182,939,"001",29453,953,"001"
"34",30126,30125,-0.296875,-0.007375,4.965313,4.955469,931.999999999999,"001",34,30103,30102,0.728125,-0.0048125,4.762812,0.000625,927,"001",30110,928,"001",30371,918,"001"
"35",31058,31057,0.48125,-0.0043125,4.963438,4.95625,931.999999999999,"001",35,31039,31038,0.76875,-0.00325,3.825625,0.00046875,936,"001",31046,936,"001",31308,937,"001"
"36",32002,32001,-0.39375,-0.0064375,4.965937,4.955156,943.999999999999,"001",36,31978,31977,0.709375,-0.0046875,4.860313,0.00046875,939,"001",31984,938,"001",32246,938,"001"
"37",32882,32881,-0.24375,-0.005625,4.965313,4.955,880.000000000003,"001",37,32860,32859,0.7,-0.004,4.860938,0.00078125,882.000000000001,"001",32866,882,"001",33132,886,"001"
"38",33731,33730,-0.440625,-0.00175,4.965625,4.956563,848.999999999997,"001",38,33708,33707,0.74375,-0.0025,4.852188,0.00078125,847.999999999999,"001",33713,847,"001",33975,843,"001"
"39",34595,34594,-0.378125,-0.0081875,4.965313,4.956719,864.000000000004,"001",39,34572,34571,0.746875,-0.0061875,4.86125,0.00046875,863.999999999997,"001",34577,864,"001",34833,858,"001"
"40",35471,35470,-0.446875,-0.00375,4.965937,4.954219,875.999999999998,"001",40,35446,35445,0.684375,-0.0008125,4.860625,0.000625,874.000000000002,"001",35452,875,"001",35708,875,"001"
"41",36361,36360,-0.4375,-0.0001875,4.965625,4.955469,890.000000000001,"001",41,36338,36337,0.78125,-0.0019375,4.860313,0.00078125,892.000000000003,"001",36343,891,"001",36600,892,"001"
"42",37229,37228,-0.353125,-0.0045,4.965,4.955938,868.000000000002,"001",42,37207,37206,0.675,-0.0045625,4.860625,0.00078125,869,"001",37212,869,"001",37479,879,"001"
"43",38090,38089,-0.2625,-0.0045,4.965,4.957187,860.999999999997,"001",43,38070,38069,0.775,-0.0029375,4.86125,0.00078125,863,"001",38074,862,"001",38335,856,"001"
"44",38982,38981,-0.309375,-0.0084375,4.965313,4.955156,892.000000000003,"001",44,38960,38959,0.678125,-0.009125,4.860313,0.00046875,890.000000000001,"001",38966,892,"001",39222,887,"001"
"45",39903,39902,0.64375,-0.006875,4.961563,4.956563,920.999999999999,"001",45,39887,39886,0.715625,-0.004625,4.859063,0.000625,927,"001",39893,927,"001",40148,926,"001"
"46",40861,40860,-0.334375,-0.005875,4.965313,4.956094,957.999999999998,"001",46,40838,40837,0.809375,-0.0031875,4.86125,0.00078125,951.000000000001,"001",40844,951,"001",41102,954,"001"
"47",41805,41804,-0.03125,-0.004875,4.964688,4.956094,944.000000000003,"001",47,41784,41783,0.71875,-0.003625,4.664375,0.00046875,945.999999999998,"001",41790,946,"001",42053,951,"001"
"48",42716,42715,-0.303125,-0.001625,4.965313,4.955,911.000000000001,"001",48,42693,42692,0.7,-0.0025,4.86125,0.0003125,908.999999999999,"001",42699,909,"001",42967,914,"001"
"49",43604,43603,-0.428125,-0.0046875,4.965625,4.955156,887.999999999998,"001",49,43580,43579,0.7375,-0.0026875,4.860938,0.000625,887,"001",43586,887,"001",43854,887,"001"
"50",44505,44504,-0.39375,-0.006375,4.965625,4.955781,900.999999999996,"001",50,44480,44479,0.753125,-0.005375,3.904063,0.00078125,899.999999999999,"001",44486,900,"001",44746,892,"001"
"51",45423,45422,-0.39375,-0.008875,4.965313,4.955312,917.999999999999,"001",51,45399,45398,0.78125,-0.00775,3.759375,0.000625,919.000000000004,"001",45406,920,"001",45661,915,"001"
"52",46351,46350,-0.1625,-0.009,4.964688,4.954531,928.000000000004,"001",52,46330,46329,0.734375,-0.0058125,4.86125,0.000625,930.999999999997,"001",46336,930,"001",46594,933,"001"
"53",47276,47275,-0.28125,-0.003625,4.965937,4.955938,924.999999999997,"001",53,47252,47251,0.746875,-0.0033125,4.373125,0.00046875,921.999999999997,"001",47259,923,"001",47521,927,"001"
"54",48143,48142,0.365625,-0.000125,4.964375,4.955625,867.000000000004,"001",54,48124,48123,0.709375,0.0010625,4.860625,0.00078125,872,"001",48130,871,"001",48404,883,"001"
"55",48973,48972,-0.3125,-0.0074375,4.965937,4.954844,829.999999999998,"001",55,48950,48949,0.76875,-0.0039375,4.860938,0.000625,826.000000000001,"001",48956,826,"001",49226,822,"001"
"56",49827,49826,-0.375,-0.01025,4.965625,4.956094,853.999999999999,"001",56,49803,49802,0.825,-0.0090625,4.860938,0.00078125,853.000000000002,"001",49809,853,"001",50075,849,"001"
"57",50731,50730,-0.35,-0.003875,4.965,4.955312,903.999999999996,"001",57,50707,50706,0.778125,-0.0035625,4.4,0.00078125,904.000000000003,"001",50714,905,"001",50976,901,"001"
"58",51661,51660,-0.28125,0.002125,4.965625,4.955469,930,"001",58,51638,51637,0.76875,0.0001875,4.248125,0.00078125,930.999999999997,"001",51644,930,"001",51906,930,"001"
"59",52560,52559,-0.35,-0.01075,4.965937,4.961406,899.000000000001,"001",59,52535,52534,0.6875,-0.0095,4.860313,0.000625,896.999999999998,"001",52541,897,"001",52809,903,"001"
"60",53448,53447,-0.25625,-0.00675,4.965937,4.955938,888.000000000005,"001",60,53424,53423,0.784375,-0.0020625,4.85875,0.000625,889.000000000003,"001",53431,890,"001",53691,882,"001"
"61",54331,54330,-0.390625,-0.00775,4.965625,4.955,882.999999999996,"001",61,54307,54306,0.746875,-0.0046875,4.860313,0.00078125,882.999999999996,"001",54314,883,"001",54567,876,"001"
"62",55147,55146,-0.375,-0.00625,4.965937,4.954063,816.000000000003,"001",62,55121,55120,0.78125,-0.0055625,4.570625,0.000625,814,"001",55127,813,"001",55387,820,"001"
"63",55971,55970,-0.184375,0.0025625,4.965625,4.955625,823.999999999998,"001",63,55948,55947,0.7125,-0.0129375,4.86,0.00078125,827.000000000005,"001",55955,828,"001",56219,832,"001"
"64",56797,56796,-0.315625,-0.0055625,4.965313,4.955781,826.000000000001,"001",64,56774,56773,0.70625,-0.00175,4.270625,0.00078125,826.000000000001,"001",56780,825,"001",57046,827,"001"
"65",57596,57595,-0.428125,-0.0105,4.965937,4.957969,798.999999999999,"001",65,57573,57572,0.759375,-0.007875,4.860938,0.00046875,798.999999999999,"001",57578,798,"001",57836,790,"001"
"66",58425,58424,-0.428125,-0.0079375,4.965313,4.9525,829.000000000001,"001",66,58401,58400,0.796875,-0.007625,4.860938,0.000625,827.999999999996,"001",58406,828,"001",58658,822,"001"
"67",59286,59285,-0.371875,-0.0066875,4.965625,4.955469,860.999999999997,"001",67,59263,59262,0.84375,-0.0024375,4.860625,0.0003125,862.000000000002,"001",59268,862,"001",59520,862,"001"
"68",60180,60179,-0.415625,-0.00025,4.965625,4.956406,894.000000000005,"001",68,60156,60155,0.6875,0.0031875,4.860313,0.00046875,893.000000000001,"001",60162,894,"001",60420,900,"001"
"69",61051,61050,-0.3625,0.0025625,4.965,4.954844,870.999999999995,"001",69,61028,61027,0.759375,0.0016875,4.568437,0.000625,872,"001",61034,872,"001",61296,876,"001"
"70",61870,61869,-0.35,-0.0025625,4.965625,4.955156,819.000000000003,"001",70,61846,61845,0.725,-0.0039375,4.86,0.000625,817.999999999998,"001",61852,818,"001",62115,819,"001"
"71",62677,62676,-0.415625,-0.0104375,4.966563,4.955938,807.000000000002,"001",71,62653,62652,0.690625,-0.009125,4.860625,0.00078125,807.000000000002,"001",62659,807,"001",62919,804,"001"
"72",63500,63499,-0.378125,-0.004,4.965313,4.956094,823,"001",72,63476,63475,0.75625,-0.002125,4.85,0.000625,823,"001",63482,823,"001",63737,818,"001"
"73",64369,64368,-0.39375,-0.0044375,4.965625,4.955,868.999999999993,"001",73,64344,64343,0.81875,-0.00625,4.86125,0.000625,868.000000000002,"001",64350,868,"001",64603,866,"001"
"74",65289,65288,-0.334375,-0.0055625,4.965937,4.955469,920.000000000002,"001",74,65264,65263,0.76875,-0.00175,4.056875,0.000625,920.000000000002,"001",65271,921,"001",65529,926,"001"
"75",66231,66230,-0.38125,-0.0070625,4.965313,4.955312,942.000000000007,"001",75,66207,66206,0.796875,-0.0055625,4.860625,0.000625,942.999999999998,"001",66213,942,"001",66474,945,"001"
"76",67137,67136,-0.4,-0.0021875,4.965,4.956406,905.999999999992,"001",76,67113,67112,0.709375,0.00075,4.86,0.00078125,905.999999999992,"001",67119,906,"001",67383,909,"001"
"77",68053,68052,-0.40625,-0.0065,4.965937,4.954688,916.000000000011,"001",77,68028,68027,0.753125,-0.0018125,4.859375,0.00078125,915.000000000006,"001",68034,915,"001",68293,910,"001"
"78",68990,68989,0.071875,-0.0065625,4.964062,4.956094,936.999999999998,"001",78,68969,68968,0.796875,-0.0053125,4.860313,0.000625,941.000000000003,"001",68975,941,"001",69229,936,"001"
"79",69927,69926,-0.26875,0.0016875,4.965937,4.954531,936.999999999998,"001",79,69902,69901,0.803125,0.0008125,4.4075,0.000625,932.999999999993,"001",69908,933,"001",70171,942,"001"
"80",70810,70809,-0.190625,-0.0073125,4.965,4.955781,882.999999999996,"001",80,70788,70787,0.765625,-0.0073125,4.534688,0.000625,886.00000000001,"001",70794,886,"001",71059,888,"001"
"81",71695,71694,-0.284375,0.0008125,4.965313,4.956406,885.000000000005,"001",81,71672,71671,0.69375,0.002375,4.859375,0.00046875,884,"001",71678,884,"001",71933,874,"001"
"82",72602,72601,0.603125,-0.007375,4.9625,4.955469,906.999999999996,"001",82,72585,72584,0.78125,-0.006375,4.505,0.00046875,912.999999999997,"001",72591,913,"001",72846,913,"001"
"83",73534,73533,-0.40625,0.0040625,4.965313,4.955938,932.000000000002,"001",83,73511,73510,0.75625,-6.25e-05,4.860313,0.0003125,926.000000000002,"001",73516,925,"001",73776,930,"001"
"84",74414,74413,-0.103125,-0.003,4.965,4.957656,879.999999999995,"001",84,74393,74392,0.725,-0.002875,4.860938,0.00078125,881.999999999991,"001",74399,883,"001",74670,894,"001"
"85",75266,75265,-0.315625,-0.00475,4.965,4.954688,852.000000000004,"001",85,75244,75243,0.784375,-0.0043125,4.860313,0.00078125,850.999999999999,"001",75249,850,"001",75513,843,"001"
"86",76135,76134,0.75,-0.004125,4.961563,4.956563,869,"001",86,76120,76119,0.759375,-0.0053125,4.860625,0.000625,876.000000000005,"001",76126,877,"001",76385,872,"001"
"87",77045,77044,0.6625,-0.006375,4.9625,3.212656,909.999999999997,"001",87,77028,77027,0.809375,-0.0065,4.858438,0.0009375,908.000000000001,"001",77034,908,"001",77292,907,"001"
"88",77956,77955,1.009375,-0.003625,4.960312,4.95625,911.000000000001,"001",88,77942,77941,0.809375,-0.0026875,4.860938,0.0009375,914.000000000001,"001",77947,913,"001",78208,916,"001"
"89",78834,78833,-0.03125,-0.0028125,4.964375,4.956094,878,"001",89,78812,78811,0.759375,-0.0049375,4.502187,0.00078125,870.000000000005,"001",78819,872,"001",79092,884,"001"
"90",79691,79690,0.965625,-0.0061875,4.961875,4.957031,856.999999999999,"001",90,79676,79675,0.7375,-0.0063125,4.860938,0.00078125,863.99999999999,"001",79682,863,"001",79948,856,"001"
"91",80583,80582,0.28125,-0.006625,4.964688,4.956875,891.999999999996,"001",91,80563,80562,0.740625,-0.0075625,3.679063,0.00078125,887,"001",80570,888,"001",80828,880,"001"
"92",81508,81507,0.875,-0.00575,4.9625,4.955469,925.000000000011,"001",92,81491,81490,0.79375,-0.003,4.511563,0.00078125,927.999999999997,"001",81498,928,"001",81758,930,"001"
"93",82452,82451,0.4625,-0.00775,4.963125,4.956406,943.999999999988,"001",93,82434,82433,0.821875,-0.00525,4.860625,0.000625,943.000000000012,"001",82440,942,"001",82703,945,"001"
"94",83367,83366,0.73125,-0.0016875,4.961875,4.957656,915.000000000006,"001",94,83351,83350,0.734375,-0.000875,4.859375,0.0009375,916.999999999987,"001",83357,917,"001",83627,924,"001"
"95",84226,84225,-0.059375,-0.001375,4.965,4.955469,858.999999999995,"001",95,84205,84204,0.75,-0.0013125,4.860313,0.00109375,853.999999999999,"001",84211,854,"001",84484,857,"001"
"96",85024,85023,0.621875,-0.0084375,4.9625,4.956406,798.000000000002,"001",96,85007,85006,0.721875,-0.0081875,4.858125,0.000625,802.000000000007,"001",85014,803,"001",85283,799,"001"
"97",85847,85846,0.709375,-0.0039375,4.962813,4.95625,823.000000000008,"001",97,85829,85828,0.765625,-0.00575,3.754375,0.000625,822.000000000003,"001",85837,823,"001",86101,818,"001"
"98",86720,86719,-0.2125,-0.0073125,4.965313,4.955312,872.99999999999,"001",98,86697,86696,0.740625,-0.0095,4.860625,0.00078125,867.999999999995,"001",86704,867,"001",86958,857,"001"
"99",87668,87667,0.759375,-0.006125,4.962813,4.955938,948.000000000008,"001",99,87651,87650,0.90625,-0.008125,4.86125,0.00046875,954.000000000008,"001",87657,953,"001",87914,956,"001"
"100",88643,88642,0.734375,0.03525,4.9625,4.957031,974.999999999994,"001",100,88627,88626,0.834375,-0.007625,4.860625,0.000625,975.999999999999,"001",88633,976,"001",89864,1950,"001"
"101",89580,89579,0.371875,-0.0199375,4.963125,4.955781,936.999999999998,"001",101,89562,89561,0.775,-0.0159375,4.860625,0.000625,935.000000000002,"001",89568,935,"001",90734,870,"001"
"102",90479,90478,0.6875,-0.0065,4.9625,4.956719,899.000000000001,"001",102,90462,90461,0.75,-0.010875,4.631875,0.00109375,899.999999999991,"001",90469,901,"001",91638,904,"001"
"103",91392,91391,0.43125,-0.006125,4.964062,4.956875,913.000000000011,"001",103,91372,91371,0.7875,-0.0050625,3.553125,0.00046875,909.999999999997,"001",91380,911,"001",92039,401,"001"
"104",92308,92307,0.325,-0.0189375,4.964062,4.955938,915.999999999997,"001",104,92289,92288,0.74375,-0.0295625,4.859063,0.00078125,917.000000000002,"001",92295,915,"001",92554,515,"001"
"105",93218,93217,-0.278125,-0.000375,4.965313,4.956719,909.999999999997,"001",105,93195,93194,0.728125,-0.0049375,4.859063,0.000625,906.000000000006,"001",93201,906,"001",93463,909,"001"
"106",94073,94072,0.496875,-0.00475,4.962813,4.956406,855.000000000004,"001",106,94056,94055,0.73125,-0.00375,4.859687,0.000625,861.000000000004,"001",94062,861,"001",94329,866,"001"
"107",94939,94938,0.096875,-0.0044375,4.964062,4.956563,866,"001",107,94920,94919,0.746875,-0.006625,4.860625,0.00046875,863.99999999999,"001",94925,863,"001",95186,857,"001"
"108",95833,95832,0.878125,-6.25e-05,4.960938,4.956719,893.999999999991,"001",108,95818,95817,0.7625,-0.0015625,4.855313,0.000625,897.999999999996,"001",95824,899,"001",96081,895,"001"
"109",96760,96759,0.6125,-0.0075625,4.961563,4.963438,927.000000000007,"001",109,96745,96744,0.80625,-0.0049375,4.860625,0.00078125,927.000000000007,"001",96750,926,"001",97008,927,"001"
"110",97702,97701,0.953125,-0.006125,4.96,4.955938,941.999999999993,"001",110,97688,97687,0.759375,-0.0066875,4.860938,0.00046875,942.999999999998,"001",97694,944,"001",97964,956,"001"
"111",98639,98638,0.440625,-5e-04,4.9625,4.956719,937.000000000012,"001",111,98623,98622,0.690625,-0.0004375,4.86125,0.00046875,935.000000000002,"001",98628,934,"001",98908,944,"001"
"112",99531,99530,-0.39375,-0.004875,4.965625,4.965156,891.999999999996,"001",112,99508,99507,0.715625,-0.0056875,4.860625,0.00078125,885.000000000005,"001",99513,885,"001",99780,872,"001"
"113",100438,100437,-0.384375,-0.0059375,4.965313,4.955625,906.999999999996,"001",113,100414,100413,0.75,-0.004125,4.85875,0.00078125,905.999999999992,"001",100420,907,"001",100679,899,"001"
"114",101375,101374,-0.425,-0.006875,4.965937,4.955469,936.999999999998,"001",114,101350,101349,0.759375,-0.0036875,4.860313,0.00078125,936.000000000007,"001",101355,935,"001",101614,935,"001"
"115",102312,102311,-0.3875,-0.0008125,4.965313,4.955625,937.000000000012,"001",115,102289,102288,0.7625,-0.0020625,4.859687,0.000625,938.999999999993,"001",102294,939,"001",102556,942,"001"
"116",103197,103196,-0.40625,-0.0215,4.965937,4.955625,884.999999999991,"001",116,103173,103172,0.778125,-0.017,4.860625,0.000625,884,"001",103178,884,"001",103443,887,"001"
"117",104084,104083,-0.14375,-0.0115,4.964688,4.956563,887,"001",117,104063,104062,0.771875,-0.011875,4.86125,0.000625,890.000000000001,"001",104069,891,"001",104327,884,"001"
"118",104980,104979,-0.3875,-0.0023125,4.965625,4.955156,896.000000000001,"001",118,104956,104955,0.76875,-0.0030625,4.860313,0.00078125,893.000000000001,"001",104962,893,"001",105220,893,"001"
"119",105861,105860,-0.353125,-0.0019375,4.965625,4.955312,881,"001",119,105838,105837,0.75625,-0.000125,4.860625,0.000625,882.000000000005,"001",105844,882,"001",106105,885,"001"
"120",106705,106704,-0.365625,-0.00175,4.965625,4.955938,843.999999999994,"001",120,106681,106680,0.69375,-0.0018125,4.859687,0.00046875,843.000000000004,"001",106687,843,"001",106955,850,"001"
"121",107529,107528,-0.4,-0.00475,4.965937,4.954688,824.000000000012,"001",121,107504,107503,0.71875,-0.003625,4.85875,0.000625,822.999999999993,"001",107510,823,"001",107775,820,"001"
"122",108366,108365,0.56875,-0.0051875,4.9625,4.956563,836.999999999989,"001",122,108350,108349,0.7875,-0.0045625,4.860625,0.000625,846.000000000004,"001",108355,845,"001",108612,837,"001"
"123",109272,109271,-0.31875,-0.004125,4.965313,4.955312,906.000000000006,"001",123,109250,109249,0.825,-0.0049375,4.860625,0.000625,899.999999999991,"001",109256,901,"001",109512,900,"001"
"124",110171,110170,0.73125,-0.0044375,4.96125,4.956406,899.000000000001,"001",124,110156,110155,0.775,-0.005375,4.85875,0.00046875,906.000000000006,"001",110162,906,"001",110421,909,"001"
"125",111094,111093,-0.465625,0.0001875,4.965,4.955312,923.000000000002,"001",125,111073,111072,0.759375,-0.000375,4.860313,0.000625,917.000000000002,"001",111077,915,"001",111337,916,"001"
"126",111963,111962,0.428125,-0.0041875,4.960312,4.955781,869,"001",126,111949,111948,0.75625,-0.0024375,4.86,0.000625,875.999999999991,"001",111952,875,"001",112218,881,"001"
"127",112791,112790,-0.3375,-0.0055625,4.964688,4.956406,828.000000000003,"001",127,112770,112769,0.70625,-0.0059375,2.572188,0.000625,821.000000000012,"001",112775,823,"001",113055,837,"001"
"128",113614,113613,0.375,-0.00625,4.962813,4.956094,822.999999999993,"001",128,113597,113596,0.7375,-0.0045,4.860625,0.00078125,826.999999999998,"001",113602,827,"001",113860,805,"001"
"129",114480,114479,-0.2875,-0.0055,4.965,4.955156,866,"001",129,114458,114457,0.796875,-0.0058125,4.860625,0.000625,860.99999999999,"001",114463,861,"001",114718,858,"001"
"130",115400,115399,0.70625,-0.0030625,4.9625,4.965,920.000000000002,"001",130,115383,115382,0.73125,-0.0014375,4.804375,0.00078125,925.000000000011,"001",115390,927,"001",115647,929,"001"
"131",116344,116343,-0.05625,-0.005625,4.964688,4.958281,944.000000000003,"001",131,116323,116322,0.7125,-0.006375,4.859687,0.00046875,939.999999999998,"001",116329,939,"001",116591,944,"001"
"132",117244,117243,0.60625,-0.0010625,4.9625,4.956563,899.999999999991,"001",132,117227,117226,0.696875,-0.0013125,3.75125,0.00046875,903.999999999996,"001",117234,905,"001",117498,907,"001"
"133",118116,118115,-0.028125,-0.008375,4.965,4.955469,872,"001",133,118095,118094,0.725,-0.005375,4.860625,0.000625,867.999999999995,"001",118101,867,"001",118378,880,"001"
"134",118989,118988,0.66875,-0.0040625,4.961875,4.955312,873.000000000005,"001",134,118973,118972,0.74375,-0.003625,4.035312,0.00078125,878,"001",118979,878,"001",119237,859,"001"
"135",119886,119885,0.321875,-0.0040625,4.963438,4.956406,897.000000000006,"001",135,119867,119866,0.734375,-0.003,4.020313,0.00078125,894.000000000005,"001",119874,895,"001",120130,893,"001"
"136",120795,120794,0.596875,-0.001375,4.962187,4.955625,908.999999999992,"001",136,120778,120777,0.840625,-0.002875,4.761875,0.00078125,911.000000000001,"001",120784,910,"001",121039,909,"001"
"137",121715,121714,-0.234375,-0.004,4.965,4.956719,920.000000000002,"001",137,121693,121692,0.7875,-0.0055,4.860313,0.00109375,914.999999999992,"001",121699,915,"001",121969,930,"001"
"138",122597,122596,0.95625,-0.005375,4.961563,4.957656,882.000000000005,"001",138,122582,122581,0.80625,-0.0053125,4.860938,0.000625,889.00000000001,"001",122588,889,"001",122853,884,"001"
"139",123510,123509,0.54375,-0.00475,4.9625,4.956094,912.999999999997,"001",139,123493,123492,0.778125,-0.0028125,4.86,0.0003125,911.000000000001,"001",123499,911,"001",124696,1843,"001"
"140",124433,124432,0.959375,-0.0108125,4.9625,4.956875,923.000000000002,"001",140,124417,124416,0.778125,-0.0064375,4.86,0.00078125,923.999999999992,"001",124424,925,"001",125610,914,"001"
"141",125367,125366,-0.271875,-0.01275,4.96625,4.956094,933.999999999997,"001",141,125342,125341,0.778125,-0.0105625,4.858438,0.00078125,924.999999999997,"001",125350,926,"001",126523,913,"001"
"142",126274,126273,-0.140625,0.0045625,4.965625,4.955469,906.999999999996,"001",142,126251,126250,0.79375,0.00225,4.860625,0.000625,909.000000000006,"001",126258,908,"001",127374,851,"001"
"143",127125,127124,-0.1375,-0.005875,4.965313,4.956406,850.999999999999,"001",143,127101,127100,0.76875,-0.00575,4.859063,0.000625,849.999999999994,"001",127108,850,"001",129896,2522,"001"
"144",127930,127929,0.66875,-0.01675,4.963438,4.957031,805.000000000007,"001",144,127912,127911,0.7125,-0.0210625,4.860625,0.000625,811.000000000007,"001",127919,811,"001",130849,953,"001"
"145",128765,128764,0.690625,0.0051875,4.962813,4.123437,835.000000000008,"001",145,128748,128747,0.6875,0.02825,4.860625,0.00046875,836.000000000013,"001",128755,836,"001",131806,957,"001"
"146",129653,129652,-0.334375,-0.0026875,4.965625,4.956563,887.999999999977,"001",146,129631,129630,0.85625,-0.0035625,4.86125,0.000625,882.999999999981,"001",129636,881,"001",132684,878,"001"
"147",130602,130601,-0.3625,-0.00875,4.965625,4.956563,949.000000000012,"001",147,130578,130577,0.815625,-0.0025625,4.86125,0.00046875,947.000000000003,"001",130584,948,"001",133548,864,"001"
"148",131558,131557,-0.0375,-0.00975,4.965,4.956094,955.999999999989,"001",148,131537,131536,0.834375,-0.0100625,4.860938,0.00078125,959.000000000003,"001",131543,959,"001",134430,882,"001"
"149",132435,132434,-0.234375,0.000875,4.965937,4.956094,877.00000000001,"001",149,132410,132409,0.74375,-0.0016875,4.860625,0.00078125,872.99999999999,"001",132417,874,"001",135345,915,"001"
"150",133304,133303,-0.225,-0.00225,4.965625,4.955781,869,"001",150,133279,133278,0.85625,0.000875,4.86125,0.00046875,869,"001",133286,869,"001",136277,932,"001"
"151",134193,134192,-0.290625,-0.0063125,4.965937,4.955469,889.00000000001,"001",151,134167,134166,0.675,-0.0061875,4.86,0.000625,888.000000000005,"001",134175,889,"001",137202,925,"001"
"152",135104,135103,0.021875,-0.004875,4.965,4.956406,911.000000000001,"001",152,135080,135079,0.7625,-0.004125,4.83,0.00078125,913.000000000011,"001",135088,913,"001",138063,861,"001"
"153",136039,136038,-0.196875,-0.0058125,4.965937,4.956094,935.000000000002,"001",153,136013,136012,0.784375,-0.0040625,3.7725,0.000625,932.999999999993,"001",136021,933,"001",138950,887,"001"
"154",136950,136949,0.60625,-0.0041875,4.963438,4.955938,911.000000000001,"001",154,136932,136931,0.81875,-0.0026875,4.860938,0.00078125,919.000000000011,"001",136939,918,"001",139866,916,"001"
"155",137818,137817,-0.06875,-0.004375,4.965313,4.956094,867.999999999995,"001",155,137794,137793,0.746875,-0.0046875,4.708125,0.000625,861.999999999995,"001",137802,863,"001",140783,917,"001"
"156",138705,138704,0.8625,-0.007,4.962813,4.957187,887,"001",156,138688,138687,0.71875,-0.0054375,4.86,0.00046875,894.000000000005,"001",138695,893,"001",141666,883,"001"
"157",139621,139620,0.45,-0.006625,4.965,4.954531,915.999999999997,"001",157,139600,139599,0.76875,-0.0054375,3.78875,0.00078125,911.999999999978,"001",139608,913,"001",142509,843,"001"
"158",140537,140536,0.41875,0,4.963438,4.956719,915.999999999997,"001",158,140518,140517,0.834375,-0.0031875,4.860625,0.00046875,918.000000000006,"001",140525,917,"001",143380,871,"001"
"159",141414,141413,-0.134375,-0.0035625,4.965937,4.955781,877.00000000001,"001",159,141391,141390,0.7375,-0.0035,3.890938,0.000625,872.99999999999,"001",141398,873,"001",144304,924,"001"
"160",142257,142256,0.771875,-0.0035,4.962813,4.955469,842.999999999989,"001",160,142239,142238,0.78125,-0.0021875,4.21125,0.000625,848.000000000013,"001",142247,849,"001",145243,939,"001"
"161",143137,143136,0.49375,-0.0055625,4.964375,4.956094,879.999999999995,"001",161,143117,143116,0.7875,-0.0044375,4.85875,0.000625,878.000000000014,"001",143125,878,"001",146163,920,"001"
"162",144055,144054,0.9375,-0.0075625,4.963125,4.955938,918.000000000006,"001",162,144038,144037,0.846875,-0.007,4.860938,0.00078125,920.999999999992,"001",144045,920,"001",147022,859,"001"
"163",144992,144991,0.559375,-0.0045625,4.963438,4.955625,937.000000000012,"001",163,144974,144973,0.803125,-0.001625,4.859375,0.00078125,936.000000000007,"001",144981,936,"001",147882,860,"001"
"164",145905,145904,0.49375,-0.004125,4.963125,4.956875,912.999999999982,"001",164,145887,145886,0.740625,-0.0045,4.836875,0.000625,912.999999999982,"001",145894,913,"001",148772,890,"001"
"165",146771,146770,-0.246875,-0.0035625,4.965,4.955312,866.000000000014,"001",165,146747,146746,0.734375,-0.002625,4.41875,0.000625,860.000000000014,"001",146754,860,"001",149688,916,"001"
"166",147632,147631,0.753125,-0.0013125,4.962187,4.366719,860.99999999999,"001",166,147615,147614,0.790625,-0.0024375,4.550625,0.000625,867.999999999995,"001",147622,868,"001",150593,905,"001"
"167",148527,148526,0.425,-0.008125,4.963125,4.95625,895.00000000001,"001",167,148509,148508,0.759375,-0.0051875,4.549688,0.000625,894.000000000005,"001",148515,893,"001",151447,854,"001"
"168",149438,149437,0.615625,-0.0044375,4.962813,4.95625,911.000000000001,"001",168,149421,149420,0.796875,-0.00175,4.860625,0.00078125,911.999999999978,"001",149427,912,"001",152350,903,"001"
"169",150339,150338,-0.265625,-0.0040625,4.96625,4.954844,900.999999999982,"001",169,150315,150314,0.828125,-0.002125,4.860938,0.000625,894.000000000005,"001",150321,894,"001",153291,941,"001"
"170",151193,151192,0.696875,-0.00375,4.962813,4.955938,854.000000000013,"001",170,151176,151175,0.825,-0.0048125,4.705,0.00078125,861.000000000018,"001",151183,862,"001",154245,954,"001"
"171",152104,152103,0.646875,-0.00225,4.96375,4.956406,911.000000000001,"001",171,152085,152084,0.725,-0.00275,3.608438,0.00078125,908.999999999992,"001",152093,910,"001",155171,926,"001"
"172",153043,153042,0.91875,-0.0080625,4.960938,4.955469,938.999999999993,"001",172,153028,153027,0.821875,-0.0068125,4.860938,0.000625,942.999999999984,"001",153034,941,"001",156031,860,"001"
"173",153999,153998,-0.290625,-0.004375,4.965313,4.956406,955.999999999989,"001",173,153975,153974,0.778125,-0.0018125,4.158125,0.00078125,947.000000000003,"001",153982,948,"001",156913,882,"001"
"174",154910,154909,0.471875,-0.005375,4.962813,4.956094,911.000000000001,"001",174,154893,154892,0.834375,-0.005125,4.860938,0.00078125,918.000000000006,"001",154898,916,"001",157827,914,"001"
"175",155783,155782,-0.284375,-0.004375,4.965,4.956406,873.000000000019,"001",175,155760,155759,0.76875,-0.0036875,4.860313,0.000625,866.99999999999,"001",155766,868,"001",158756,929,"001"
"176",156668,156667,0.371875,-0.0033125,4.963438,4.956719,884.999999999991,"001",176,156649,156648,0.765625,-0.0035625,4.86,0.00078125,889.00000000001,"001",156656,890,"001",159687,931,"001"
"177",157581,157580,-0.253125,-0.0105625,4.965937,4.955781,913.000000000011,"001",177,157556,157555,0.88125,-0.00675,4.860938,0.0003125,907.000000000011,"001",157563,907,"001",160544,857,"001"
"178",158513,158512,-0.325,-0.002625,4.965937,4.955156,931.999999999988,"001",178,158489,158488,0.746875,-0.0025,4.860625,0.00078125,932.999999999993,"001",158496,933,"001",161382,838,"001"
"179",159434,159433,-0.146875,-5e-04,4.965625,4.955938,920.999999999992,"001",179,159412,159411,0.83125,-0.0004375,4.860625,0.000625,923.000000000002,"001",159418,922,"001",162256,874,"001"
"180",160290,160289,-0.303125,-0.004125,4.965625,4.955938,855.999999999995,"001",180,160266,160265,0.70625,-0.002625,4.859687,0.00078125,853.999999999985,"001",160273,855,"001",163190,934,"001"
"181",161135,161134,-0.296875,-0.0044375,4.965937,4.954844,844.999999999999,"001",181,161110,161109,0.778125,-0.0043125,4.860938,0.000625,844.000000000023,"001",161117,844,"001",164153,963,"001"
"182",162015,162014,-0.265625,-0.005375,4.96625,4.955625,880.000000000024,"001",182,161990,161989,0.75625,-0.004125,4.86,0.00046875,879.999999999995,"001",161997,880,"001",165058,905,"001"
"183",162947,162946,-0.20625,-0.010875,4.965625,4.955625,931.999999999988,"001",183,162922,162921,0.834375,-0.0084375,4.86125,0.0009375,931.999999999988,"001",162930,933,"001",165932,874,"001"
"184",163908,163907,-0.315625,0.002125,4.965937,4.955312,961.000000000013,"001",184,163881,163880,0.76875,0.0029375,4.065625,0.000625,959.000000000003,"001",163889,959,"001",166827,895,"001"
"185",164802,164801,-0.296875,-0.011625,4.965625,4.955312,893.999999999977,"001",185,164778,164777,0.83125,-0.007375,4.860625,0.00078125,896.999999999991,"001",164784,895,"001",168700,1873,"001"
"186",165685,165684,-0.303125,-0.010125,4.965313,4.955469,883.00000000001,"001",186,165660,165659,0.78125,-0.007125,4.858438,0.000625,882.000000000005,"001",165668,884,"001",169617,917,"001"
"187",166586,166585,-0.3375,-0.0106875,4.965625,4.954688,901.00000000001,"001",187,166561,166560,0.809375,-0.006375,4.860625,0.00078125,901.00000000001,"001",166568,900,"001",170477,860,"001"
"188",167515,167514,-0.334375,0.057125,4.965625,3.871406,929.000000000002,"001",188,167490,167489,0.765625,0.03375,3.920625,0.00078125,929.000000000002,"001",167497,929,"001",171292,815,"001"
"189",168448,168447,-0.1125,-0.0065,4.964375,4.955312,932.999999999993,"001",189,168427,168426,0.740625,-0.0006875,4.860313,0.000625,936.999999999983,"001",168433,936,"001",172143,851,"001"
"190",169366,169365,-0.3625,-0.008875,4.965313,4.955625,918.000000000006,"001",190,169342,169341,0.8,-0.003,4.860313,0.000625,915.00000000002,"001",169348,915,"001",173039,896,"001"
"191",170216,170215,-0.303125,-0.0055,4.965937,4.956094,849.999999999994,"001",191,170192,170191,0.709375,-0.0029375,4.86,0.00078125,849.999999999994,"001",170198,850,"001",173972,933,"001"
"192",171046,171045,-0.303125,0.00375,4.965313,4.955938,829.999999999984,"001",192,171021,171020,0.834375,-0.0005625,4.860625,0.00078125,829.000000000008,"001",171028,830,"001",174874,902,"001"
"193",171900,171899,-0.296875,-0.0035625,4.965313,4.955469,854.000000000013,"001",193,171875,171874,0.784375,-0.0019375,4.860938,0.000625,853.999999999985,"001",171882,854,"001",175715,841,"001"
"194",172799,172798,-0.26875,-0.014,4.965937,4.955156,899.000000000001,"001",194,172773,172772,0.8375,-0.0155625,4.860625,0.00078125,897.999999999996,"001",172780,898,"001",176531,816,"001"
"195",173729,173728,-0.21875,0.0035,4.965625,4.955781,930.000000000007,"001",195,173705,173704,0.75,-0.006375,4.859063,0.000625,932.000000000016,"001",173712,932,"001",177366,835,"001"
"196",174623,174622,-0.315625,-0.0013125,4.965,4.954844,894.000000000005,"001",196,174599,174598,0.7625,-0.0011875,4.860625,0.00078125,894.000000000005,"001",174605,893,"001",178235,869,"001"
"197",175463,175462,-0.328125,-0.0091875,4.965937,4.955469,839.999999999975,"001",197,175438,175437,0.765625,-0.0084375,4.860313,0.000625,838.999999999999,"001",175444,839,"001",179125,890,"001"
"198",176289,176288,-0.4125,-0.012625,4.965937,4.956406,826.000000000022,"001",198,176263,176262,0.740625,-0.0090625,4.526875,0.00078125,824.999999999989,"001",176270,826,"001",179980,855,"001"
"199",177126,177125,-0.33125,-0.0098125,4.965937,4.958438,836.999999999989,"001",199,177101,177100,0.8,-0.0134375,3.888125,0.00078125,837.999999999994,"001",177108,838,"001",180835,855,"001"
"200",177993,177992,-0.36875,-0.006125,4.965937,4.955312,866.99999999999,"001",200,177968,177967,0.703125,-0.0041875,4.860313,0.000625,867.000000000019,"001",177975,867,"001",181719,884,"001"
"201",178880,178879,-0.275,0.001625,4.965937,4.955312,887,"001",201,178854,178853,0.80625,0.0023125,4.107188,0.00078125,885.999999999996,"001",178861,886,"001",182624,905,"001"
"202",179727,179726,-0.06875,-0.00975,4.965,4.955938,847.000000000008,"001",202,179705,179704,0.809375,-0.0105625,4.860625,0.000625,850.999999999999,"001",179711,850,"001",183523,899,"001"
"203",180595,180594,-0.29375,-0.00825,4.965625,4.955312,867.999999999995,"001",203,180572,180571,0.75625,-0.007625,4.860625,0.00078125,866.99999999999,"001",180578,867,"001",184368,845,"001"
"204",181468,181467,0.825,-0.0040625,4.960938,4.957187,873.000000000019,"001",204,181453,181452,0.828125,-0.00275,4.86125,0.000625,881,"001",181458,880,"001",185230,862,"001"
"205",182380,182379,-0.2375,-0.00225,4.965,4.957031,911.999999999978,"001",205,182358,182357,0.8375,0.000875,4.86125,0.000625,905.000000000001,"001",182363,905,"001",186136,906,"001"
"206",183262,183261,0.45,-0.0001875,4.963125,4.956406,882.000000000005,"001",206,183244,183243,0.75,0.0016875,4.574063,0.000625,885.999999999996,"001",183251,888,"001",187063,927,"001"
"207",184116,184115,-0.225,-0.008,4.965313,4.955938,854.000000000013,"001",207,184094,184093,0.78125,-0.006875,4.860625,0.000625,849.999999999994,"001",184100,849,"001",187956,893,"001"
"208",184989,184988,-0.43125,-0.009375,4.965625,4.955156,872.99999999999,"001",208,184965,184964,0.765625,-0.0070625,4.86,0.00078125,871.000000000009,"001",184971,871,"001",188795,839,"001"
"209",185893,185892,-0.409375,-0.0086875,4.965937,4.954219,903.999999999996,"001",209,185869,185868,0.753125,-0.0071875,4.860313,0.00078125,903.999999999996,"001",185875,904,"001",189660,865,"001"
"210",186816,186815,-0.540625,6.25e-05,4.965313,4.954844,923.000000000002,"001",210,186793,186792,0.70625,0.00075,3.782188,0.00046875,924.000000000007,"001",186798,923,"001",190562,902,"001"
"211",187698,187697,-0.403125,-0.00425,4.965,4.955312,882.000000000005,"001",211,187675,187674,0.7375,-0.004125,4.859687,0.00078125,882.000000000005,"001",187679,881,"001",191482,920,"001"
"212",188548,188547,-0.471875,-0.00325,4.965313,4.954844,849.999999999994,"001",212,188523,188522,0.6875,-0.0026875,4.86,0.00078125,847.999999999985,"001",188529,850,"001",192398,916,"001"
"213",189421,189420,-0.38125,-0.0024375,4.965937,4.955,872.99999999999,"001",213,189396,189395,0.796875,-0.00525,4.860313,0.000625,873.000000000019,"001",189401,872,"001",193259,861,"001"
"214",190317,190316,-0.409375,-0.0040625,4.965937,4.961406,896.000000000015,"001",214,190291,190290,0.7375,-0.0039375,4.85875,0.00046875,894.999999999982,"001",190297,896,"001",194148,889,"001"
"215",191235,191234,-0.309375,-0.0019375,4.965937,4.955781,918.000000000006,"001",215,191210,191209,0.790625,-0.0008125,4.86125,0.000625,919.000000000011,"001",191216,919,"001",195081,933,"001"
"216",192139,192138,-0.34375,-0.0033125,4.965313,4.955,903.999999999996,"001",216,192114,192113,0.69375,-0.003375,4.860313,0.00046875,903.999999999996,"001",192120,904,"001",196016,935,"001"
"217",193006,193005,-0.340625,-0.00675,4.965937,4.955312,866.99999999999,"001",217,192981,192980,0.7125,-0.0029375,4.859063,0.00109375,866.99999999999,"001",192988,868,"001",196919,903,"001"
"218",193907,193906,-0.340625,-0.0136875,4.965313,4.955938,901.00000000001,"001",218,193881,193880,0.84375,-0.0104375,4.860313,0.00078125,900.000000000006,"001",193887,899,"001",197753,834,"001"
"219",194835,194834,-0.30625,-0.043,4.965625,4.954688,927.999999999997,"001",219,194808,194807,0.73125,-0.044875,4.860313,0.00078125,926.999999999992,"001",194816,929,"001",198606,853,"001"
"220",195767,195766,-0.296875,-0.0113125,4.965625,4.955469,931.999999999988,"001",220,195741,195740,0.80625,-0.0120625,4.859375,0.00078125,933.000000000021,"001",195747,931,"001",199510,904,"001"
"221",196659,196658,-0.35625,-0.006625,4.965625,4.956094,891.999999999996,"001",221,196634,196633,0.6875,-0.0049375,4.86,0.00078125,893.000000000001,"001",196640,893,"001",200441,931,"001"
"222",197498,197497,-0.353125,-0.005625,4.965625,4.954844,839.000000000027,"001",222,197473,197472,0.7125,-0.0075625,4.859687,0.00078125,838.999999999999,"001",197480,840,"001",201354,913,"001"
"223",198362,198361,-0.321875,-0.0078125,4.96625,4.955469,863.999999999976,"001",223,198336,198335,0.74375,-0.006875,4.859063,0.000625,863,"001",198343,863,"001",202200,846,"001"
"224",199266,199265,-0.371875,-0.0084375,4.965625,4.955469,903.999999999996,"001",224,199240,199239,0.796875,-0.0071875,4.620312,0.0009375,903.999999999996,"001",199247,904,"001",203046,846,"001"
"225",200195,200194,-0.3625,-0.0050625,4.965625,4.954219,929.000000000002,"001",225,200169,200168,0.775,-0.00275,4.43,0.000625,929.000000000002,"001",200176,929,"001",203970,924,"001"
"226",201095,201094,-0.44375,0.000375,4.965937,4.955469,900.000000000006,"001",226,201070,201069,0.7,0.001,4.4,0.000625,900.999999999982,"001",201076,900,"001",204915,945,"001"
"227",201944,201943,-0.4625,-0.007375,4.965,4.955781,849.000000000018,"001",227,201920,201919,0.734375,-0.0094375,3.62375,0.00078125,850.000000000023,"001",201924,848,"001",205850,935,"001"
"228",202805,202804,-0.44375,-0.0075,4.965313,4.954844,860.99999999999,"001",228,202780,202779,0.734375,-0.00875,4.037813,0.00078125,859.999999999985,"001",202785,861,"001",206757,907,"001"
"229",203714,203713,-0.50625,-0.012625,4.965625,4.954688,908.999999999992,"001",229,203689,203688,0.759375,-0.013,4.079063,0.00046875,908.999999999992,"001",203694,909,"001",207690,933,"001"
"230",204665,204664,-0.453125,-0.0056875,4.965,4.955938,950.999999999993,"001",230,204643,204642,0.8,-0.005125,4.860625,0.00046875,954.000000000008,"001",204647,953,"001",208618,928,"001"
"231",205590,205589,-0.4125,-0.0133125,4.965313,4.955156,925.000000000011,"001",231,205566,205565,0.725,-0.0108125,4.557812,0.00046875,923.000000000002,"001",205571,924,"001",209506,888,"001"
"232",206508,206507,-0.4625,-0.0101875,4.965,4.956563,918.000000000006,"001",232,206485,206484,0.725,-0.01025,4.86,0.00046875,919.000000000011,"001",206490,919,"001",210322,816,"001"
"233",207440,207439,-0.415625,-0.0065,4.965,4.955469,931.999999999988,"001",233,207418,207417,0.7125,-0.009,4.86,0.00078125,932.999999999993,"001",207423,933,"001",211159,837,"001"
"234",208368,208367,-0.40625,-0.0105625,4.965,4.954688,927.999999999997,"001",234,208346,208345,0.778125,-0.0081875,4.830625,0.00078125,927.999999999997,"001",208351,928,"001",212009,850,"001"
"235",209252,209251,-0.43125,-0.005,4.965,4.955625,884.000000000015,"001",235,209229,209228,0.803125,-0.0041875,4.860625,0.00046875,883.00000000001,"001",209234,883,"001",212886,877,"001"
"236",210076,210075,-0.284375,-0.003375,4.965,4.955781,823.999999999984,"001",236,210054,210053,0.70625,-0.0055,4.86,0.000625,824.999999999989,"001",210060,826,"001",213754,868,"001"
"237",210914,210913,-0.378125,-0.0011875,4.965625,4.955625,838.000000000022,"001",237,210890,210889,0.80625,-0.0013125,4.07875,0.000625,836.000000000013,"001",210896,836,"001",214627,873,"001"
"238",211763,211762,-0.35625,-0.006375,4.965313,4.955781,848.99999999999,"001",238,211737,211736,0.771875,-0.0038125,4.3825,0.000625,846.99999999998,"001",211744,848,"001",215560,933,"001"
"239",212636,212635,-0.340625,-0.000625,4.965625,4.955781,872.99999999999,"001",239,212612,212611,0.821875,-0.0003125,4.860625,0.00078125,875,"001",212618,874,"001",216529,969,"001"
"240",213499,213498,-0.25625,-0.0095,4.965,4.955312,863,"001",240,213476,213475,0.8125,-0.00575,4.860938,0.00078125,864.000000000004,"001",213482,864,"001",217483,954,"001"
"241",214382,214381,-0.1875,-0.00525,4.965625,4.955312,883.00000000001,"001",241,214359,214358,0.7375,-0.004625,4.860625,0.000625,883.00000000001,"001",214366,884,"001",218386,903,"001"
"242",215318,215317,-0.15,-0.0021875,4.965313,4.9575,936.000000000007,"001",242,215294,215293,0.775,-0.0030625,4.340937,0.00078125,935.000000000002,"001",215302,936,"001",219237,851,"001"
"243",216279,216278,1.034375,-0.0058125,4.9625,4.955781,960.999999999984,"001",243,216263,216262,0.753125,-0.0051875,4.860313,0.00046875,968.999999999994,"001",216270,968,"001",220105,868,"001"
"244",217231,217230,0.8625,-0.0015,4.9625,4.956406,951.999999999998,"001",244,217215,217214,0.79375,-0.001625,4.860625,0.00046875,951.999999999998,"001",217222,952,"001",221009,904,"001"
"245",218132,218131,-0.146875,-0.004875,4.965,4.956563,901.00000000001,"001",245,218110,218109,0.8125,-0.001875,4.860313,0.000625,895.00000000001,"001",218116,894,"001",221933,924,"001"
"246",218986,218985,0.621875,-0.0040625,4.963438,4.956406,854.000000000013,"001",246,218968,218967,0.76875,-0.003,4.860313,0.0009375,858.000000000004,"001",218975,859,"001",222850,917,"001"
"247",219869,219868,-0.278125,-0.0055,4.965937,4.955625,882.999999999981,"001",247,219844,219843,0.75,-0.00375,4.860313,0.00078125,875.999999999976,"001",219851,876,"001",223723,873,"001"
"248",220765,220764,0.234375,0.0065625,4.964062,4.95625,896.000000000015,"001",248,220745,220744,0.846875,0.009125,4.860313,0.00078125,901.00000000001,"001",220752,901,"001",224543,820,"001"
"249",221693,221692,-0.303125,0.0111875,4.965937,4.955625,927.999999999997,"001",249,221668,221667,0.8,0.0090625,4.859375,0.00046875,923.000000000002,"001",221675,923,"001",225382,839,"001"
"250",222597,222596,0.590625,-0.0050625,4.962813,4.957344,903.999999999996,"001",250,222580,222579,0.81875,-0.00375,4.860625,0.00078125,912.000000000006,"001",222586,911,"001",226245,863,"001"
"251",223468,223467,-0.246875,-0.0051875,4.965625,4.955781,871.000000000009,"001",251,223445,223444,0.715625,-0.004375,4.85875,0.000625,864.999999999981,"001",223451,865,"001",227152,907,"001"
"252",224298,224297,-0.3125,-0.0051875,4.965625,4.955938,829.999999999984,"001",252,224273,224272,0.76875,-0.0058125,4.860625,0.000625,828.000000000003,"001",224279,828,"001",228076,924,"001"
"253",225143,225142,-0.43125,-0.006625,4.96625,4.955781,844.999999999999,"001",253,225117,225116,0.740625,-0.0083125,4.845313,0.00078125,844.000000000023,"001",225124,845,"001",228928,852,"001"
"254",226004,226003,-0.384375,-0.0031875,4.965937,4.955625,860.99999999999,"001",254,225979,225978,0.815625,-0.00275,4.860313,0.000625,861.999999999995,"001",225985,861,"001",229799,871,"001"
"255",226903,226902,-0.246875,-0.001625,4.965,4.955469,899.000000000001,"001",255,226880,226879,0.75,0.0001875,4.175,0.00078125,900.999999999982,"001",226887,902,"001",230691,892,"001"
"256",227804,227803,-0.340625,-0.002375,4.965313,4.956719,901.00000000001,"001",256,227780,227779,0.740625,-0.0024375,4.199063,0.00046875,900.000000000006,"001",227787,900,"001",231605,914,"001"
"257",228666,228665,-0.421875,-0.008625,4.965625,4.956406,861.999999999995,"001",257,228642,228641,0.7125,-0.00475,4.860625,0.000625,861.999999999995,"001",228648,861,"001",232534,929,"001"
"258",229546,229545,-0.434375,-0.0116875,4.965937,4.956406,879.999999999995,"001",258,229521,229520,0.709375,-0.0059375,4.859687,0.000625,879.000000000019,"001",229528,880,"001",233449,915,"001"
"259",230442,230441,-0.121875,-0.0071875,4.965,4.956406,896.000000000015,"001",259,230419,230418,0.79375,-0.00725,4.410938,0.000625,897.999999999996,"001",230426,898,"001",234330,881,"001"
"260",231358,231357,-0.20625,-0.0076875,4.965625,4.955625,915.999999999997,"001",260,231334,231333,0.784375,-0.0055625,4.860313,0.00078125,914.999999999992,"001",231341,915,"001",235247,917,"001"
"261",232283,232282,-0.075,-0.0043125,4.965,4.956563,925.000000000011,"001",261,232261,232260,0.84375,-0.003625,4.860313,0.00078125,926.999999999992,"001",232267,926,"001",236191,944,"001"
"262",233189,233188,-0.33125,-0.0076875,4.965313,4.95625,905.999999999977,"001",262,233166,233165,0.765625,-0.006875,4.860625,0.000625,905.000000000001,"001",233172,905,"001",237139,948,"001"
"263",234074,234073,0.45625,-0.00675,4.964062,4.956719,885.000000000019,"001",263,234054,234053,0.7875,-0.0053125,4.040625,0.000625,888.000000000005,"001",234062,890,"001",238030,891,"001"
"264",234999,234998,-0.175,-0.00575,4.965,4.955625,924.999999999983,"001",264,234975,234974,0.859375,-0.005125,4.649375,0.000625,920.999999999992,"001",234982,920,"001",238911,881,"001"
"265",235945,235944,-0.225,-0.007125,4.965625,4.955625,945.999999999998,"001",265,235919,235918,0.76875,-0.0043125,4.86,0.000625,944.000000000017,"001",235927,945,"001",239835,924,"001"
"266",236885,236884,-0.246875,-0.00725,4.965,4.955625,939.999999999998,"001",266,236862,236861,0.8375,-0.0040625,4.860625,0.000625,942.999999999984,"001",236868,941,"001",240745,910,"001"
"267",237772,237771,-0.271875,-0.0064375,4.965,4.956094,887,"001",267,237747,237746,0.728125,-0.0040625,4.857813,0.00078125,885.000000000019,"001",237754,886,"001",241630,885,"001"
"268",238662,238661,0.45,-0.007375,4.965,4.955469,890.000000000015,"001",268,238642,238641,0.853125,-0.0075625,4.860938,0.00046875,894.999999999982,"001",238649,895,"001",242537,907,"001"
"269",239589,239588,-0.021875,0.0188125,4.965313,4.956406,926.999999999992,"001",269,239566,239565,0.75625,0.0220625,4.860313,0.000625,924.000000000007,"001",239574,925,"001",243458,921,"001"
"270",240488,240487,0.65625,-0.0055,4.962187,4.957813,899.000000000001,"001",270,240471,240470,0.765625,-0.0034375,4.20125,0.0009375,905.000000000001,"001",240478,904,"001",244390,932,"001"
"271",241383,241382,-0.284375,-0.005375,4.965,4.955781,895.00000000001,"001",271,241360,241359,0.834375,-0.0051875,4.860625,0.00046875,889.00000000001,"001",241366,888,"001",245279,889,"001"
"272",242282,242281,0.634375,-0.00775,4.963125,4.956563,899.000000000001,"001",272,242264,242263,0.79375,-0.0085,4.445625,0.000625,903.999999999996,"001",242271,905,"001",246115,836,"001"
"273",243200,243199,0.54375,-0.0066875,4.963125,4.95625,918.000000000006,"001",273,243183,243182,0.76875,-0.003125,4.86,0.00046875,918.999999999983,"001",243189,918,"001",246978,863,"001"
"274",244130,244129,0.628125,-0.0039375,4.961563,4.957031,929.999999999978,"001",274,244114,244113,0.765625,-0.003375,4.220313,0.0009375,931.000000000012,"001",244120,931,"001",247898,920,"001"
"275",245012,245011,-0.146875,-0.0078125,4.965,4.955469,882.000000000005,"001",275,244990,244989,0.728125,-0.0080625,4.429688,0.00078125,876.000000000005,"001",244997,877,"001",248881,983,"001"
"276",245852,245851,0.675,-0.00675,4.9625,4.955938,840.000000000003,"001",276,245836,245835,0.80625,-0.006,4.860938,0.00046875,846.000000000004,"001",245842,845,"001",249833,952,"001"
"277",246723,246722,-0.11875,-0.0061875,4.965313,4.955156,871.000000000009,"001",277,246701,246700,0.784375,-0.005625,4.859063,0.00046875,864.999999999981,"001",246707,865,"001",250789,956,"001"
"278",247641,247640,0.778125,-0.004625,4.9625,4.957187,917.999999999978,"001",278,247624,247623,0.828125,-0.0036875,4.860625,0.00078125,923.000000000002,"001",247631,924,"001",251756,967,"001"
"279",248627,248626,0.584375,-0.003125,4.9625,4.957344,986.000000000018,"001",279,248610,248609,0.746875,-0.001,4.860313,0.000625,986.000000000018,"001",248616,985,"001",252732,976,"001"
"280",249576,249575,0.634375,0.002,4.9625,4.956406,948.999999999984,"001",280,249560,249559,0.778125,0.0029375,4.86,0.00046875,949.999999999989,"001",249566,950,"001",253657,925,"001"
"281",250532,250531,0.671875,-0.0030625,4.9625,4.955312,956.000000000017,"001",281,250515,250514,0.75625,0.0040625,4.487188,0.00078125,955.000000000013,"001",250522,956,"001",254512,855,"001"
"282",251504,251503,0.44375,-0.0165,4.963438,4.95625,971.99999999998,"001",282,251485,251484,0.81875,-0.0158125,4.860938,0.00078125,969.999999999999,"001",251492,970,"001",255378,866,"001"
"283",252474,252473,0.74375,-0.005375,4.9625,4.955312,970.000000000027,"001",283,252457,252456,0.728125,-0.0061875,4.85875,0.00078125,971.99999999998,"001",252464,972,"001",256270,892,"001"
"284",253392,253391,0.578125,-0.007625,4.962813,4.955938,917.999999999978,"001",284,253374,253373,0.69375,-0.0056875,4.859063,0.000625,917.000000000002,"001",253381,917,"001",257174,904,"001"
"285",254256,254255,0.38125,-0.002375,4.964062,4.955312,864.000000000004,"001",285,254237,254236,0.790625,-0.008625,4.86,0.00078125,863,"001",254243,862,"001",258046,872,"001"
"286",255131,255130,-0.1375,-0.01025,4.965313,4.955625,875,"001",286,255107,255106,0.75,-0.0094375,4.698125,0.000625,870.000000000005,"001",255115,872,"001",258948,902,"001"
"287",256016,256015,0.675,-0.003375,4.963125,4.955938,884.999999999991,"001",287,255998,255997,0.790625,-0.00125,3.975,0.00046875,891.00000000002,"001",256005,890,"001",259891,943,"001"
"288",256915,256914,-0.1875,-0.0044375,4.965625,4.956406,899.000000000001,"001",288,256890,256889,0.778125,-0.004125,4.860938,0.0003125,891.999999999996,"001",256898,893,"001",260844,953,"001"
"289",257783,257782,0.753125,-0.004375,4.963438,4.866719,867.999999999995,"001",289,257765,257764,0.796875,-0.0045,4.86,0.000625,875,"001",257773,875,"001",261757,913,"001"
"290",258697,258696,0.475,-0.009,4.963438,4.956875,914.000000000044,"001",290,258678,258677,0.84375,-0.0080625,4.700625,0.00078125,913.000000000011,"001",258685,912,"001",262705,948,"001"
"291",259637,259636,0.675,-0.0104375,4.963125,4.955469,939.999999999998,"001",291,259619,259618,0.803125,-0.0110625,3.521875,0.00046875,940.999999999974,"001",259626,941,"001",263668,963,"001"
"292",260590,260589,-0.225,-0.007625,4.965313,4.955781,952.999999999975,"001",292,260566,260565,0.728125,-0.00625,4.859063,0.00078125,947.000000000003,"001",260573,947,"001",264632,964,"001"
"293",261503,261502,-0.196875,-0.01025,4.965625,4.955312,913.000000000011,"001",293,261480,261479,0.796875,-0.008875,4.860938,0.00078125,913.999999999987,"001",261486,913,"001",265598,966,"001"
"294",262450,262449,0.603125,-0.0104375,4.9625,4.956406,947.000000000003,"001",294,262433,262432,0.7125,-0.0106875,4.859375,0.00078125,953.000000000031,"001",262440,954,"001",266553,955,"001"
"295",263418,263417,-0.3125,-0.0108125,4.965,4.955625,967.999999999961,"001",295,263396,263395,0.8125,-0.0101875,4.86,0.00078125,962.999999999965,"001",263401,961,"001",267488,935,"001"
"296",264376,264375,0.696875,-0.01025,4.961875,4.956563,958.000000000027,"001",296,264359,264358,0.8125,-0.00925,4.213438,0.000625,963.000000000022,"001",264366,965,"001",268444,956,"001"
"297",265343,265342,-0.33125,-0.004625,4.965313,4.955469,966.999999999985,"001",297,265320,265319,0.85,-0.003625,4.860938,0.000625,961.000000000013,"001",265326,960,"001",269411,967,"001"
"298",266287,266286,0.5875,-0.0100625,4.963125,4.955469,944.000000000017,"001",298,266269,266268,0.75625,-0.0085,4.860313,0.00046875,948.999999999955,"001",266276,950,"001",270356,945,"001"
"299",267227,267226,1.05,-0.0116875,4.9625,4.957031,939.999999999998,"001",299,267211,267210,0.81875,-0.0115625,4.860313,0.000625,942.000000000007,"001",267218,942,"001",271249,893,"001"
"300",268187,268186,0.909375,-0.011125,4.9625,4.955156,959.99999999998,"001",300,268170,268169,0.75625,-0.0099375,4.859687,0.00078125,959.000000000003,"001",268178,960,"001",272131,882,"001"
"301",269153,269152,0.734375,-0.00775,4.9625,4.956094,966.000000000008,"001",301,269136,269135,0.8125,-0.0079375,4.859063,0.000625,966.000000000008,"001",269143,965,"001",273060,929,"001"
"302",270094,270093,0.09375,-0.003875,4.964062,4.955781,941.000000000031,"001",302,270073,270072,0.74375,-0.003,4.859375,0.00078125,937.000000000012,"001",270080,937,"001",274035,975,"001"
"303",270977,270976,0.621875,-0.0045625,4.962813,4.956875,882.999999999981,"001",303,270960,270959,0.778125,-0.0045,4.727812,0.00046875,887,"001",270967,887,"001",275011,976,"001"
"304",271866,271865,0.65,-0.006,4.963438,4.956406,889.00000000001,"001",304,271848,271847,0.765625,-0.0065625,4.859375,0.00046875,887.999999999977,"001",271855,888,"001",275962,951,"001"
"305",272799,272798,0.79375,-0.0095,4.962813,4.956094,932.999999999993,"001",305,272781,272780,0.76875,-0.008125,4.859375,0.00046875,932.999999999993,"001",272789,934,"001",276835,873,"001"
"306",273774,273773,1.2,-0.011125,4.96125,4.956094,975.000000000023,"001",306,273759,273758,0.80625,-0.007125,4.86,0.0009375,978.000000000009,"001",273766,977,"001",277714,879,"001"
"307",274755,274754,0.615625,-0.0074375,4.962813,4.956406,980.999999999995,"001",307,274738,274737,0.771875,-0.0050625,4.860625,0.000625,979.000000000042,"001",274744,978,"001",278621,907,"001"
"308",275695,275694,0.765625,-0.007,4.960938,4.955625,939.999999999998,"001",308,275680,275679,0.765625,-0.00425,4.02625,0.000625,941.99999999995,"001",275686,942,"001",279535,914,"001"
"309",276575,276574,0.525,-0.009375,4.9625,4.955938,879.999999999995,"001",309,276559,276558,0.771875,-0.0100625,4.860313,0.0003125,879.000000000019,"001",276564,878,"001",280432,897,"001"
"310",277462,277461,0.9125,-0.0095625,4.960938,4.955781,887,"001",310,277447,277446,0.815625,-0.0111875,4.860938,0.000625,888.000000000034,"001",277453,889,"001",281285,853,"001"
"311",278373,278372,0.384375,-0.0066875,4.962813,4.955625,911.000000000001,"001",311,278355,278354,0.775,-0.0065625,4.293438,0.00046875,907.999999999959,"001",278361,908,"001",282130,845,"001"
"312",279284,279283,0.46875,-0.005125,4.963125,4.956875,911.000000000001,"001",312,279266,279265,0.79375,-0.0048125,4.86,0.00046875,911.000000000001,"001",279272,911,"001",283016,886,"001"
"313",280182,280181,-0.39375,-0.0024375,4.964375,4.956094,897.999999999968,"001",313,280161,280160,0.725,-0.00125,4.86,0.00046875,895.000000000039,"001",280165,893,"001",283922,906,"001"
"314",281030,281029,-0.415625,-0.0096875,4.965,4.955469,848.000000000013,"001",314,281008,281007,0.75,-0.00775,4.86,0.00046875,846.99999999998,"001",281013,848,"001",284817,895,"001"
"315",281886,281885,-0.478125,-0.008,4.965,4.955938,855.999999999995,"001",315,281863,281862,0.80625,-0.0079375,4.577188,0.000625,855.000000000018,"001",281868,855,"001",285699,882,"001"
"316",282764,282763,0.3375,-0.0079375,4.96375,4.956094,877.999999999986,"001",316,282746,282745,0.81875,-0.006875,4.860625,0.00046875,882.999999999981,"001",282752,884,"001",286618,919,"001"
"317",283674,283673,-0.3375,0.001125,4.964375,4.956094,910.000000000025,"001",317,283653,283652,0.790625,0.0068125,4.860625,0.00078125,906.999999999982,"001",283658,906,"001",287555,937,"001"
"318",284557,284556,0.40625,0.005,4.9625,4.955938,882.999999999981,"001",318,284541,284540,0.7875,0.0025625,4.860625,0.000625,888.000000000034,"001",284546,888,"001",288484,929,"001"
"319",285451,285450,-0.45625,-0.009125,4.965,4.956094,894.000000000005,"001",319,285428,285427,0.746875,-0.00875,3.92625,0.000625,887,"001",285434,888,"001",289357,873,"001"
"320",286365,286364,0.75,-0.00825,4.961563,4.955,913.999999999987,"001",320,286349,286348,0.759375,-0.0070625,4.666563,0.00078125,920.999999999992,"001",286355,921,"001",290172,815,"001"
"321",287309,287308,-0.375,-0.01075,4.965313,4.954688,944.000000000017,"001",321,287286,287285,0.815625,-0.0089375,4.859063,0.000625,937.000000000012,"001",287292,937,"001",291009,837,"001"
"322",288227,288226,0.371875,-0.006125,4.963438,4.955781,918.000000000006,"001",322,288209,288208,0.759375,-0.0045625,4.860625,0.00046875,923.000000000002,"001",288215,923,"001",291874,865,"001"
"323",289100,289099,-0.3375,-0.007375,4.965625,4.955312,872.99999999999,"001",323,289076,289075,0.684375,-0.0075625,3.9025,0.00078125,866.999999999962,"001",289083,868,"001",292771,897,"001"
"324",289918,289917,0.78125,-0.0075625,4.96125,4.951094,817.999999999984,"001",324,289903,289902,0.765625,-0.00725,4.86,0.00046875,826.999999999998,"001",289908,825,"001",293676,905,"001"
"325",290758,290757,0.43125,-0.007625,4.964062,4.951406,840.000000000032,"001",325,290739,290738,0.734375,-0.0081875,3.900625,0.00078125,836.000000000013,"001",290746,838,"001",294530,854,"001"
"326",291619,291618,0.4375,-0.005875,4.963438,4.95125,860.99999999999,"001",326,291601,291600,0.846875,-0.0059375,4.860938,0.00078125,862.000000000023,"001",291607,861,"001",295422,892,"001"
"327",292518,292517,-0.05625,-0.002125,4.965,4.950469,899.000000000001,"001",327,292496,292495,0.815625,-0.0025625,4.860938,0.000625,894.999999999982,"001",292502,895,"001",296338,916,"001"
"328",293405,293404,0.54375,-0.0069375,4.9625,4.019375,887,"001",328,293388,293387,0.828125,-0.004625,4.86,0.00078125,891.999999999996,"001",293394,892,"001",297238,900,"001"
"329",294274,294273,-0.325,-0.007125,4.965625,4.950469,869.000000000028,"001",329,294249,294248,0.746875,-0.0071875,4.86,0.000625,860.99999999999,"001",294256,862,"001",298069,831,"001"
"330",295177,295176,-0.321875,-0.0081875,4.965625,4.950469,902.999999999963,"001",330,295153,295152,0.853125,-0.0063125,4.860625,0.00078125,903.999999999996,"001",295159,903,"001",298902,833,"001"
"331",296095,296094,-0.234375,-0.0043125,4.965625,4.951094,918.000000000006,"001",331,296070,296069,0.865625,-0.004,4.860625,0.00078125,917.00000000003,"001",296077,918,"001",299760,858,"001"
"332",296983,296982,-0.271875,-0.002,4.965313,4.950625,888.000000000034,"001",332,296958,296957,0.746875,-0.0029375,4.86,0.000625,887.999999999977,"001",296965,888,"001",300622,862,"001"
"333",297823,297822,-0.2875,-0.0065,4.96625,4.950781,839.999999999975,"001",333,297796,297795,0.740625,-0.0056875,4.582187,0.00078125,838.000000000022,"001",297804,839,"001",301457,835,"001"
"334",298665,298664,-0.303125,-0.00825,4.965937,4.950312,841.999999999985,"001",334,298638,298637,0.73125,-0.009125,4.859375,0.000625,841.999999999985,"001",298645,841,"001",302278,821,"001"
"335",299517,299516,-0.328125,-0.0055625,4.965625,4.950938,852.000000000032,"001",335,299492,299491,0.80625,-0.005125,4.860313,0.0009375,853.999999999985,"001",299499,854,"001",303133,855,"001"
"336",300378,300377,-0.271875,-5e-04,4.965313,4.950938,860.99999999999,"001",336,300354,300353,0.79375,5e-04,4.85875,0.00078125,862.000000000023,"001",300360,861,"001",304012,879,"001"
"337",301202,301201,-0.328125,-0.007125,4.965937,4.951094,824.000000000012,"001",337,301177,301176,0.73125,-0.0051875,4.86,0.000625,822.999999999979,"001",301184,824,"001",304896,884,"001"
"338",302034,302033,-0.271875,-0.006375,4.965625,4.881094,831.999999999994,"001",338,302010,302009,0.74375,-0.006,4.859687,0.00078125,833.000000000027,"001",302017,833,"001",305737,841,"001"
"339",302893,302892,-0.3375,-0.0036875,4.965625,4.950625,858.99999999998,"001",339,302868,302867,0.78125,-0.003625,4.860625,0.00078125,858.000000000004,"001",302875,858,"001",306614,877,"001"
"340",303769,303768,-0.409375,-0.003,4.965625,4.950312,875.999999999976,"001",340,303745,303744,0.759375,-0.001875,4.477812,0.00078125,877.00000000001,"001",303751,876,"001",307513,899,"001"
"341",304642,304641,-0.4,-0.0056875,4.965937,4.950625,873.000000000047,"001",341,304617,304616,0.73125,-0.0035625,4.85875,0.0009375,871.999999999957,"001",304622,871,"001",309270,1757,"001"
"342",305491,305490,-0.396875,-0.0060625,4.965625,4.950938,848.99999999999,"001",342,305469,305468,0.778125,-0.00575,4.860625,0.00078125,852.000000000032,"001",305474,852,"001",310142,872,"001"
"343",306371,306370,-0.46875,-0.00825,4.965313,4.950469,879.999999999995,"001",343,306348,306347,0.76875,-0.0073125,4.860938,0.000625,878.999999999962,"001",306353,879,"001",311045,903,"001"
"344",307273,307272,-0.3375,-0.004,4.965937,4.950312,901.999999999987,"001",344,307248,307247,0.778125,-0.0030625,4.860938,0.00046875,900.000000000034,"001",307254,901,"001",311970,925,"001"
"345",308165,308164,-0.34375,-0.0411875,4.965937,4.95125,891.999999999996,"001",345,308140,308139,0.809375,-0.03075,4.749063,0.00046875,891.999999999996,"001",308146,892,"001",312885,915,"001"
"346",309022,309021,-0.290625,-0.0763125,4.965,4.950156,857.000000000028,"001",346,308999,308998,0.690625,-0.0749375,4.81125,0.000625,858.99999999998,"001",309005,859,"001",313778,893,"001"
"347",309895,309894,-0.2875,-0.00225,4.965,4.950781,872.99999999999,"001",347,309873,309872,0.76875,-0.014375,4.85875,0.00078125,874.000000000024,"001",309879,874,"001",314605,827,"001"
"348",310792,310791,0.934375,-0.0049375,4.961563,4.951094,896.999999999991,"001",348,310776,310775,0.84375,-0.0020625,4.330938,0.000625,902.999999999963,"001",310783,904,"001",315430,825,"001"
"349",311717,311716,0.53125,-0.00825,4.96375,4.951094,925.000000000011,"001",349,311699,311698,0.81875,-0.0064375,4.860313,0.00078125,923.000000000002,"001",311705,922,"001",317228,1798,"001"
"350",312628,312627,0.75625,-0.0035625,4.9625,4.95125,911.000000000001,"001",350,312611,312610,0.784375,-0.0030625,4.219375,0.0009375,912.000000000035,"001",312618,913,"001",318169,941,"001"
"351",313519,313518,0.053125,-0.006375,4.965,4.951406,890.999999999963,"001",351,313498,313497,0.834375,-0.0054375,4.860625,0.000625,887,"001",313504,886,"001",319123,954,"001"
"352",314343,314342,0.721875,-0.0053125,4.9625,4.950781,824.000000000012,"001",352,314326,314325,0.7375,-0.0065,4.860313,0.000625,827.999999999975,"001",314333,829,"001",320088,965,"001"
"353",315178,315177,0.484375,-0.0055625,4.963438,4.951406,835.000000000036,"001",353,315159,315158,0.76875,-0.005625,4.859375,0.00078125,833.000000000027,"001",315166,833,"001",321077,989,"001"
"354",316042,316041,0.959375,-0.004625,4.962813,4.950938,863.999999999976,"001",354,316025,316024,0.740625,-0.0126875,4.86,0.0003125,865.999999999985,"001",316033,867,"001",322041,964,"001"
"355",316974,316973,0.45,-0.0066875,4.963438,4.95125,932.000000000016,"001",355,316955,316954,0.78125,-0.00875,4.062812,0.000625,930.000000000007,"001",316962,929,"001",322966,925,"001"
"356",317902,317901,0.796875,-0.008625,4.9625,4.950938,927.999999999997,"001",356,317885,317884,0.753125,-0.0084375,4.859375,0.00046875,930.000000000007,"001",317892,930,"001",323805,839,"001"
"357",318865,318864,0.75,-0.01,4.963438,4.951875,962.999999999965,"001",357,318847,318846,0.78125,-0.01025,4.86,0.000625,961.999999999989,"001",318854,962,"001",324629,824,"001"
"358",319832,319831,1.225,-0.011125,4.96125,4.951563,967.000000000041,"001",358,319817,319816,0.828125,-0.011,4.860625,0.00078125,969.99999999997,"001",319824,970,"001",325484,855,"001"
"359",320824,320823,0.70625,-0.0095,4.963125,4.950781,991.999999999962,"001",359,320806,320805,0.746875,-0.007125,4.859687,0.00078125,989.000000000033,"001",320813,989,"001",326366,882,"001"
"360",321784,321783,0.53125,-0.0069375,4.96375,4.951406,960.000000000036,"001",360,321765,321764,0.803125,-0.0058125,4.860313,0.00046875,959.000000000003,"001",321773,960,"001",327272,906,"001"
"361",322702,322701,0.496875,-0.004375,4.961563,4.951406,918.000000000006,"001",361,322686,322685,0.728125,-0.0044375,4.859687,0.000625,920.999999999992,"001",322691,918,"001",328158,886,"001"
"362",323545,323544,0.1375,-0.0068125,4.963438,4.951563,842.999999999961,"001",362,323527,323526,0.75,-0.00775,4.858438,0.00078125,841.000000000008,"001",323532,841,"001",329006,848,"001"
"363",324380,324379,0.40625,-0.0074375,4.9625,4.951563,835.000000000036,"001",363,324363,324362,0.7875,-0.0078125,4.860313,0.00078125,836.000000000013,"001",324368,836,"001",329891,885,"001"
"364",325234,325233,0.415625,-0.0090625,4.962813,4.951719,853.999999999985,"001",364,325217,325216,0.78125,-0.0089375,4.86,0.000625,853.999999999985,"001",325222,854,"001",331762,1871,"001"
"365",326119,326118,-0.4625,-0.0055625,4.965,4.951094,884.999999999991,"001",365,326096,326095,0.8,-0.0045,4.860938,0.00078125,879.000000000019,"001",326101,879,"001",332667,905,"001"
"366",327020,327019,-0.378125,-0.0019375,4.965625,4.950625,901.00000000001,"001",366,326996,326995,0.659375,-0.0013125,4.85875,0.00046875,899.999999999977,"001",327002,901,"001",333501,834,"001"
"367",327900,327899,-0.409375,-0.0071875,4.965625,4.950156,879.999999999995,"001",367,327876,327875,0.715625,-0.007,4.86,0.00078125,879.999999999995,"001",327881,879,"001",88772,-244729,"001"
"368",328752,328751,-0.35625,-0.0079375,4.965937,4.951094,851.999999999975,"001",368,328727,328726,0.7875,-0.0074375,3.910313,0.00078125,850.999999999999,"001",328733,852,"001",123757,34985,"001"
"369",329646,329645,-0.33125,-0.009625,4.965625,4.950312,894.000000000005,"001",369,329622,329621,0.840625,-0.008375,4.86125,0.00078125,894.999999999982,"001",329627,894,"001",129009,5252,"001"
"370",330573,330572,-0.3125,-0.020625,4.965313,4.9525,927.000000000021,"001",370,330550,330549,0.796875,-0.0350625,4.635937,0.00046875,927.999999999997,"001",330557,930,"001",128240,-769,"001"
"371",331515,331514,-0.29375,-0.0138125,4.965625,4.950469,942.000000000007,"001",371,331492,331491,0.740625,-0.012875,4.86,0.00046875,942.000000000007,"001",331498,941,"001",167760,39520,"001"
"372",332414,332413,-0.24375,-0.0036875,4.965,4.951875,899.000000000001,"001",372,332391,332390,0.746875,-0.0010625,4.86,0.00078125,899.000000000001,"001",332397,899,"001",308408,140648,"001"
"373",333252,333251,-0.2875,-0.0105,4.965625,4.950781,837.999999999965,"001",373,333227,333226,0.796875,-0.0100625,4.74,0.000625,836.000000000013,"001",333234,837,"001",316291,7883,"001"
"374",NA,NA,NA,NA,NA,NA,NA,NA,374,NA,NA,NA,NA,NA,NA,NA,NA,NA,NA,NA,330809,14518,"001"
"375",110,109,0.7,-0.0058125,4.920625,4.951406,NA,"002",1,102,101,1.2125,-0.0055625,4.05875,0.00046875,NA,"002",100,NA,"002",382,NA,"002"
"376",978,977,0.6875,-0.0065625,4.94,4.952031,868,"002",2,970,969,1.18125,-0.0068125,4.346875,0.00078125,868,"002",968,868,"002",1255,873,"002"
"377",1825,1824,0.678125,-0.0055,4.92,4.951875,847,"002",3,1820,1819,1.021875,-0.0058125,4.860938,0.00078125,850,"002",1817,849,"002",2105,850,"002"
"378",2665,2664,0.709375,-0.00625,4.899063,4.951563,840,"002",4,2661,2660,1.03125,-0.0061875,4.86,0.00046875,841,"002",2658,841,"002",2942,837,"002"
"379",3708,3707,0.63125,-0.0054375,4.919062,4.951094,1043,"002",5,3702,3701,1.153125,-0.0054375,4.687188,0.000625,1041,"002",3700,1042,"002",3983,1041,"002"
"380",4721,4720,0.7,-0.0066875,4.920938,4.951563,1013,"002",6,4715,4714,1.184375,-0.00675,4.858438,0.00078125,1013,"002",4713,1013,"002",5003,1020,"002"
"381",5604,5603,0.771875,-0.0034375,4.917187,4.952969,883,"002",7,5599,5598,1.10625,-0.0036875,4.860938,0.000625,883.999999999999,"002",5596,883,"002",5884,881,"002"
"382",6460,6459,0.675,-0.0054375,4.915,4.951719,856,"002",8,6455,6454,1.015625,-0.005625,4.860938,0.00078125,856,"002",6452,856,"002",6741,857,"002"
"383",7300,7299,0.68125,-0.0059375,4.899687,4.951875,840.000000000001,"002",9,7296,7295,0.9625,-0.0063125,4.86,0.00078125,841,"002",7293,841,"002",7577,836,"002"
"384",8083,8082,0.76875,-0.006125,4.890625,4.952344,783,"002",10,8080,8079,1.046875,-0.006125,4.86125,0.00078125,784.000000000001,"002",8077,784,"002",8368,791,"002"
"385",8902,8901,0.778125,-0.005,4.929062,4.952031,818.999999999999,"002",11,8896,8895,1.1875,-0.005125,4.860938,0.00078125,815.999999999999,"002",8894,817,"002",9178,810,"002"
"386",10040,10039,0.74375,-0.0055,4.917813,4.952188,1138,"002",12,10034,10033,1.21875,-0.0055,4.550313,0.000625,1138,"002",10032,1138,"002",10312,1134,"002"
"387",11053,11052,0.834375,-0.0023125,4.901562,4.95125,1013,"002",13,11049,11048,1.215625,-0.002375,4.86125,0.000625,1015,"002",11047,1015,"002",11339,1027,"002"
"388",12035,12034,0.821875,-0.0049375,4.907188,4.952031,982.000000000001,"002",14,12030,12029,1.303125,-0.0045625,4.5425,0.000625,981,"002",12028,981,"002",12325,986,"002"
"389",12965,12964,0.771875,-0.007,4.915625,4.952031,930,"002",15,12960,12959,1.0875,-0.0066875,4.861562,0.000625,930,"002",12957,929,"002",13248,923,"002"
"390",13788,13787,0.746875,-0.0055625,4.925937,4.952656,823,"002",16,13782,13781,1.2125,-0.0060625,4.860313,0.0009375,822.000000000001,"002",13780,823,"002",14071,823,"002"
"391",14599,14598,0.596875,-0.005125,4.938125,4.953594,811,"002",17,14592,14591,1.1375,-0.005375,4.860625,0.00078125,809.999999999999,"002",14589,809,"002",14876,805,"002"
"392",15529,15528,0.659375,-0.0050625,4.928125,4.951875,930,"002",18,15523,15522,1.20625,-0.005125,4.86125,0.00078125,931.000000000001,"002",15520,931,"002",15804,928,"002"
"393",16514,16513,0.70625,-0.007375,4.928125,4.952344,985.000000000001,"002",19,16507,16506,1.290625,-0.0070625,3.83875,0.00078125,984,"002",16506,986,"002",16792,988,"002"
"394",17538,17537,0.871875,-0.004,4.879688,4.952031,1024,"002",20,17535,17534,1.20625,-0.00425,4.860625,0.00046875,1028,"002",17533,1027,"002",17821,1029,"002"
"395",18563,18562,0.7,-0.0058125,4.908125,4.951875,1025,"002",21,18558,18557,1.153125,-0.005875,4.858125,0.000625,1023,"002",18555,1022,"002",18846,1025,"002"
"396",19516,19515,0.778125,-0.0053125,4.931563,4.951875,952.999999999999,"002",22,19509,19508,1.278125,-0.0055,4.858438,0.000625,951.000000000001,"002",19508,953,"002",19798,952,"002"
"397",20382,20381,0.803125,-0.005875,4.940313,4.951875,866,"002",23,20374,20373,1.3,-0.0063125,4.511875,0.0003125,865.000000000002,"002",20373,865,"002",20667,869,"002"
"398",21194,21193,0.825,-0.00475,4.928125,4.952031,812.000000000001,"002",24,21188,21187,1.2625,-0.0050625,4.86125,0.00078125,814,"002",21186,813,"002",21479,812,"002"
"399",22093,22092,0.64375,-0.0031875,4.928438,4.952188,898.999999999997,"002",25,22087,22086,1.203125,-0.0041875,4.86125,0.0009375,898.999999999997,"002",22084,898,"002",22370,891,"002"
"400",23042,23041,0.696875,-0.004875,4.913125,4.951875,949.000000000002,"002",26,23037,23036,1.05,-0.0053125,4.860313,0.0003125,950.000000000003,"002",23034,950,"002",23321,951,"002"
"401",23938,23937,0.621875,-0.0065,4.911875,4.952188,896.000000000001,"002",27,23933,23932,1.015625,-0.0065,4.85875,0.00078125,895.999999999997,"002",23930,896,"002",24222,901,"002"
"402",24781,24780,0.759375,-0.005375,4.907813,4.952344,843,"002",28,24776,24775,1.18125,-0.0055,3.980625,0.00078125,843,"002",24774,844,"002",25064,842,"002"
"403",25708,25707,0.796875,-0.005375,4.916563,4.951563,927,"002",29,25703,25702,1.271875,-0.0055625,4.860938,0.00046875,927.000000000003,"002",25701,927,"002",25989,925,"002"
"404",26844,26843,0.665625,-0.007375,4.938125,4.9525,1136,"002",30,26836,26835,1.259375,-0.0079375,4.858438,0.000625,1133,"002",26835,1134,"002",27122,1133,"002"
"405",27838,27837,0.821875,-0.00425,4.919688,4.952031,994,"002",31,27832,27831,1.31875,-0.004375,4.735938,0.0009375,995.999999999999,"002",27831,996,"002",28127,1005,"002"
"406",28796,28795,0.74375,-0.0036875,4.919688,4.952031,958.000000000002,"002",32,28790,28789,1.340625,-0.0035625,4.548125,0.00078125,958.000000000002,"002",28788,957,"002",29083,956,"002"
"407",29740,29739,0.796875,-0.0038125,4.921563,4.951719,943.999999999999,"002",33,29734,29733,1.275,-0.00425,4.859375,0.00078125,943.999999999999,"002",29733,945,"002",30028,945,"002"
"408",30634,30633,0.884375,-0.004375,4.913125,4.952031,893.999999999998,"002",34,30629,30628,1.240625,-0.0043125,4.86,0.00078125,895,"002",30628,895,"002",30923,895,"002"
"409",31484,31483,0.80625,-0.0046875,4.919688,4.951406,850.000000000001,"002",35,31479,31478,1.221875,-0.0049375,4.860625,0.000625,850.000000000001,"002",31477,849,"002",31770,847,"002"
"410",32418,32417,0.85625,-0.004875,4.90375,4.951719,934.000000000001,"002",36,32414,32413,1.246875,-0.0049375,4.86125,0.000625,934.999999999995,"002",32411,934,"002",32703,933,"002"
"411",33364,33363,0.846875,-0.006,4.911563,4.952969,945.999999999998,"002",37,33359,33358,1.221875,-0.0058125,4.859687,0.00078125,945,"002",33358,947,"002",33651,948,"002"
"412",34261,34260,0.81875,-0.005375,4.900625,4.950625,896.999999999998,"002",38,34257,34256,1.240625,-0.005625,4.860313,0.00078125,898.000000000003,"002",34255,897,"002",34550,899,"002"
"413",35300,35299,0.884375,-0.0056875,4.912187,4.952031,1039,"002",39,35295,35294,1.303125,-0.005875,4.860625,0.00078125,1038,"002",35293,1038,"002",35584,1034,"002"
"414",36360,36359,0.775,-0.0049375,4.916563,4.951563,1060,"002",40,36354,36353,1.340625,-0.0054375,4.077813,0.00078125,1059,"002",36353,1060,"002",36648,1064,"002"
"415",37332,37331,0.865625,-0.0044375,4.900938,4.951719,972.000000000001,"002",41,37328,37327,1.3,-0.00425,4.860938,0.00046875,973.999999999997,"002",37326,973,"002",37624,976,"002"
"416",38255,38254,0.94375,-0.00225,4.88875,4.95125,922.999999999995,"002",42,38251,38250,1.3,-0.0024375,3.460938,0.000625,923.000000000002,"002",38250,924,"002",38546,922,"002"
"417",39168,39167,0.78125,-0.0055625,4.898125,4.951875,913.000000000004,"002",43,39164,39163,1.15,-0.005625,4.86125,0.000625,912.999999999997,"002",39162,912,"002",39457,911,"002"
"418",40025,40024,0.7375,-0.0065625,4.924688,4.951563,856.999999999999,"002",44,40019,40018,1.178125,-0.0069375,4.859375,0.00078125,855.000000000004,"002",40017,855,"002",40316,859,"002"
"419",40853,40852,0.784375,-0.0046875,4.923438,4.952188,827.999999999996,"002",45,40847,40846,1.2375,-0.0051875,4.859687,0.00078125,827.999999999996,"002",40846,829,"002",41140,824,"002"
"420",41792,41791,0.7875,-0.0059375,4.931563,4.952031,939,"002",46,41785,41784,1.296875,-0.0060625,4.664063,0.00078125,938.000000000002,"002",41783,937,"002",42073,933,"002"
"421",42798,42797,0.759375,-0.008625,4.935,4.9525,1006,"002",47,42791,42790,1.296875,-0.00825,4.860938,0.00046875,1006,"002",42790,1007,"002",43082,1009,"002"
"422",43812,43811,0.896875,-0.0048125,4.910625,4.952813,1014,"002",48,43807,43806,1.325,-0.005,4.86,0.00046875,1016,"002",43806,1016,"002",44101,1019,"002"
"423",44863,44862,0.784375,-0.004,4.932188,4.952031,1051,"002",49,44856,44855,1.296875,-0.0043125,4.860313,0.00078125,1049,"002",44855,1049,"002",45148,1047,"002"
"424",45833,45832,0.846875,-0.006,4.92375,4.951875,969.999999999999,"002",50,45827,45826,1.253125,-0.0063125,4.860313,0.000625,971.000000000004,"002",45826,971,"002",46123,975,"002"
"425",46692,46691,0.803125,-0.003875,4.929688,4.951719,859.000000000002,"002",51,46686,46685,1.353125,-0.004375,4.860938,0.000625,859.000000000002,"002",46685,859,"002",46986,863,"002"
"426",47565,47564,0.775,-0.0043125,4.929688,4.952188,872.999999999998,"002",52,47559,47558,1.325,-0.0045625,4.860938,0.000625,872.999999999998,"002",47557,872,"002",47853,867,"002"
"427",48464,48463,0.865625,-0.004875,4.915,4.952031,899.000000000001,"002",53,48459,48458,1.275,-0.0049375,4.860625,0.000625,899.999999999999,"002",48457,900,"002",48753,900,"002"
"428",49342,49341,0.771875,-0.006,4.91875,4.951563,878,"002",54,49337,49336,1.221875,-0.006375,4.860938,0.0009375,878,"002",49335,878,"002",49633,880,"002"
"429",50191,50190,0.765625,-0.004375,4.922187,4.951875,848.999999999997,"002",55,50185,50184,1.30625,-0.0045,4.569375,0.0009375,847.999999999999,"002",50184,849,"002",50478,845,"002"
"430",51178,51177,0.80625,-0.0061875,4.915625,4.952188,987.000000000002,"002",56,51173,51172,1.290625,-0.006,4.860938,0.00078125,988,"002",51171,987,"002",51461,983,"002"
"431",52219,52218,0.86875,-0.0063125,4.890313,4.952188,1041,"002",57,52215,52214,1.271875,-0.0064375,4.75,0.00078125,1042,"002",52213,1042,"002",52509,1048,"002"
"432",53177,53176,0.88125,-0.0036875,4.891563,4.952188,957.999999999998,"002",58,53173,53172,1.2875,-0.00375,4.632813,0.000625,957.999999999998,"002",53171,958,"002",53468,959,"002"
"433",54107,54106,0.784375,-0.0035,4.909688,4.951719,930,"002",59,54102,54101,1.2125,-0.003875,4.859375,0.00078125,929.000000000002,"002",54099,928,"002",54396,928,"002"
"434",54985,54984,0.759375,-0.004875,4.897188,4.952031,878,"002",60,54981,54980,1.128125,-0.0050625,4.860313,0.00078125,878.999999999998,"002",54979,880,"002",55277,881,"002"
"435",55825,55824,0.75,-0.004,4.909063,4.952188,839.999999999996,"002",61,55820,55819,1.228125,-0.0043125,4.197813,0.00078125,839.000000000006,"002",55818,839,"002",56116,839,"002"
"436",56733,56732,0.7625,-0.0045625,4.903125,4.952031,908.000000000001,"002",62,56729,56728,1.171875,-0.00475,4.860938,0.000625,908.999999999999,"002",56726,908,"002",57020,904,"002"
"437",57649,57648,0.846875,-0.00275,4.916875,4.951719,916.000000000004,"002",63,57644,57643,1.31875,-0.003125,4.860938,0.00078125,914.999999999999,"002",57642,916,"002",57936,916,"002"
"438",58548,58547,0.859375,-0.004875,4.922187,4.953125,898.999999999994,"002",64,58542,58541,1.36875,-0.00525,4.680625,0.00078125,897.999999999996,"002",58541,899,"002",58838,902,"002"
"439",59436,59435,0.7375,-0.0055625,4.935625,4.952813,888.000000000005,"002",65,59429,59428,1.3125,-0.0060625,4.860625,0.000625,887,"002",59427,886,"002",59724,886,"002"
"440",60378,60377,0.909375,-0.0053125,4.90625,4.952031,942,"002",66,60373,60372,1.328125,-0.0054375,4.4175,0.0009375,944.000000000003,"002",60372,945,"002",60664,940,"002"
"441",61305,61304,0.85,-0.004125,4.92625,4.951406,927,"002",67,61299,61298,1.365625,-0.00475,4.861562,0.000625,926.000000000002,"002",61298,926,"002",61595,931,"002"
"442",62164,62163,0.95625,-0.0048125,4.925625,4.952188,858.999999999995,"002",68,62158,62157,1.328125,-0.005,4.860313,0.00046875,858.999999999995,"002",62158,860,"002",62455,860,"002"
"443",63105,63104,0.8875,-0.003875,4.92,4.952344,941.000000000003,"002",69,63099,63098,1.346875,-0.0041875,4.249688,0.0009375,941.000000000003,"002",63099,941,"002",63392,937,"002"
"444",64061,64060,0.9375,-0.0046875,4.913125,4.952656,956.000000000003,"002",70,64056,64055,1.309375,-0.00425,4.86,0.00046875,957.000000000008,"002",64055,956,"002",64351,959,"002"
"445",64939,64938,1.065625,-0.00425,4.894687,4.952031,878,"002",71,64935,64934,1.3875,-0.0041875,4.72875,0.00078125,878.999999999991,"002",64934,879,"002",65235,884,"002"
"446",65831,65830,0.93125,-0.0050625,4.903437,4.952188,891.999999999996,"002",72,65827,65826,1.33125,-0.005125,4.860938,0.00078125,891.999999999996,"002",65825,891,"002",66121,886,"002"
"447",66771,66770,0.85625,-0.0060625,4.915625,4.951875,939.999999999998,"002",73,66766,66765,1.328125,-0.00625,4.860938,0.00046875,939.000000000007,"002",66764,939,"002",67060,939,"002"
"448",67646,67645,0.825,-0.0050625,4.930625,4.951719,875,"002",74,67639,67638,1.35625,-0.005125,3.8375,0.00078125,873.000000000005,"002",67638,874,"002",67940,880,"002"
"449",68500,68499,0.859375,-0.0039375,4.925937,4.951719,853.999999999999,"002",75,68494,68493,1.26875,-0.004,4.859687,0.0009375,854.99999999999,"002",68493,855,"002",68791,851,"002"
"450",69421,69420,0.809375,-0.0044375,4.915,4.952656,921.000000000006,"002",76,69416,69415,1.20625,-0.0045625,4.860313,0.0009375,922.000000000011,"002",69414,921,"002",69708,917,"002"
"451",70322,70321,0.703125,-0.00625,4.930937,4.951875,900.999999999996,"002",77,70315,70314,1.2875,-0.006625,4.754688,0.00078125,898.999999999987,"002",70313,899,"002",70612,904,"002"
"452",71143,71142,0.8375,-0.0054375,4.934687,4.952031,820.999999999998,"002",78,71136,71135,1.290625,-0.005625,4.859063,0.00078125,821.000000000012,"002",71135,822,"002",71435,823,"002"
"453",72028,72027,0.840625,-0.004875,4.91625,4.952031,885.000000000005,"002",79,72023,72022,1.259375,-0.00525,4.860938,0.000625,887,"002",72021,886,"002",72315,880,"002"
"454",72920,72919,0.803125,-0.0054375,4.901875,4.9525,891.999999999996,"002",80,72916,72915,1.2,-0.005625,4.86125,0.000625,893.000000000001,"002",72914,893,"002",73209,894,"002"
"455",73755,73754,0.8,-0.0061875,4.902188,4.952031,835.000000000008,"002",81,73751,73750,1.196875,-0.00625,4.860625,0.00078125,834.999999999994,"002",73749,835,"002",74050,841,"002"
"456",74569,74568,0.809375,-0.005375,4.928125,4.951875,813.999999999993,"002",82,74563,74562,1.225,-0.00575,4.86125,0.00078125,811.999999999998,"002",74561,812,"002",74858,808,"002"
"457",75449,75448,0.859375,-0.006125,4.916563,4.952344,879.999999999995,"002",83,75444,75443,1.228125,-0.006125,4.860938,0.00046875,881,"002",75442,881,"002",75735,877,"002"
"458",76346,76345,0.81875,-0.0068125,4.930625,4.9525,897.000000000006,"002",84,76339,76338,1.29375,-0.0073125,4.350937,0.000625,894.999999999996,"002",76338,896,"002",76634,899,"002"
"459",77174,77173,0.828125,-0.0046875,4.945,4.951875,828.000000000003,"002",85,77166,77165,1.375,-0.005125,4.860938,0.00046875,827.000000000012,"002",77165,827,"002",77467,833,"002"
"460",78019,78018,0.884375,-0.0053125,4.940625,4.951406,844.999999999999,"002",86,78011,78010,1.340625,-0.00575,4.773438,0.00078125,844.999999999999,"002",78011,846,"002",78306,839,"002"
"461",78930,78929,0.83125,-0.005125,4.935313,4.951563,911.000000000001,"002",87,78923,78922,1.309375,-0.00525,4.860313,0.00078125,911.999999999992,"002",78922,911,"002",79216,910,"002"
"462",79822,79821,0.903125,-0.005875,4.940313,4.952031,891.999999999996,"002",88,79814,79813,1.340625,-0.0060625,4.663125,0.0009375,891.000000000005,"002",79814,892,"002",80114,898,"002"
"463",80627,80626,0.8625,-0.0040625,4.931875,4.951719,805.000000000007,"002",89,80621,80620,1.39375,-0.0043125,4.860938,0.000625,807.000000000002,"002",80620,806,"002",80921,807,"002"
"464",81488,81487,0.80625,-0.0053125,4.932188,4.951719,860.99999999999,"002",90,81481,81480,1.375,-0.0055625,4.578125,0.00078125,859.999999999999,"002",81480,860,"002",81775,854,"002"
"465",82368,82367,0.815625,-0.005125,4.9,4.952031,880.00000000001,"002",91,82364,82363,1.228125,-0.0050625,4.860938,0.00109375,882.999999999996,"002",82362,882,"002",82656,881,"002"
"466",83208,83207,0.78125,-0.0065625,4.92375,4.951563,839.999999999989,"002",92,83202,83201,1.334375,-0.0068125,4.822813,0.00078125,837.999999999994,"002",83201,839,"002",83500,844,"002"
"467",83994,83993,0.709375,-0.0053125,4.93,4.952188,786.000000000001,"002",93,83988,83987,1.275,-0.00575,4.860938,0.0009375,786.000000000001,"002",83986,785,"002",84284,784,"002"
"468",84862,84861,0.7,-0.0058125,4.92,4.952344,868.000000000009,"002",94,84856,84855,1.246875,-0.0058125,2.450625,0.00078125,868.000000000009,"002",84854,868,"002",85147,863,"002"
"469",85759,85758,0.703125,-0.0056875,4.919688,4.952031,896.999999999991,"002",95,85753,85752,1.19375,-0.005625,3.085,0.00078125,896.999999999991,"002",85751,897,"002",86047,900,"002"
"470",86623,86622,0.709375,-0.004875,4.935,4.952031,864.000000000004,"002",96,86616,86615,1.203125,-0.0050625,4.860313,0.00046875,863,"002",86614,863,"002",86914,867,"002"
"471",87434,87433,0.7625,-0.005625,4.909688,4.951563,811.000000000007,"002",97,87429,87428,1.246875,-0.0054375,4.206875,0.000625,813.000000000002,"002",87427,813,"002",87726,812,"002"
"472",88310,88309,0.690625,-0.0051875,4.905625,4.952188,875.999999999991,"002",98,88306,88305,1.040625,-0.00525,4.86125,0.00078125,877.00000000001,"002",88302,875,"002",88597,871,"002"
"473",89216,89215,0.678125,-0.006375,4.907188,4.952188,906.000000000006,"002",99,89211,89210,1.1125,-0.0065625,4.317188,0.00078125,904.999999999987,"002",89208,906,"002",89505,908,"002"
"474",90035,90034,0.75,-0.00375,4.927188,4.952344,819.000000000003,"002",100,90029,90028,1.221875,-0.0039375,4.860938,0.00078125,818.000000000012,"002",90027,819,"002",90330,825,"002"
"475",90882,90881,0.725,-0.0043125,4.939687,4.952031,846.999999999994,"002",101,90874,90873,1.328125,-0.0041875,3.992188,0.0009375,844.999999999999,"002",90873,846,"002",91168,838,"002"
"476",91759,91758,0.73125,-0.0066875,4.932812,4.961719,876.999999999995,"002",102,91752,91751,1.240625,-0.00675,4.838125,0.00078125,878,"002",91750,877,"002",92044,876,"002"
"477",92626,92625,0.71875,-0.0065625,4.931563,4.952344,867.000000000004,"002",103,92619,92618,1.278125,-0.0070625,4.1975,0.00078125,866.99999999999,"002",92618,868,"002",92916,872,"002"
"478",93435,93434,0.746875,-0.0065,4.94125,4.95125,808.999999999997,"002",104,93427,93426,1.321875,-0.006375,4.626875,0.000625,808.000000000007,"002",93426,808,"002",93726,810,"002"
"479",94303,94302,0.875,-0.0063125,4.925625,4.952188,868.000000000009,"002",105,94297,94296,1.2875,-0.0063125,4.859687,0.000625,870.000000000005,"002",94296,870,"002",94590,864,"002"
"480",95212,95211,0.775,-0.005,4.940625,4.952031,908.999999999992,"002",106,95204,95203,1.36875,-0.005,4.6275,0.00078125,906.999999999996,"002",95203,907,"002",95499,909,"002"
"481",96085,96084,0.89375,-0.004375,4.926875,4.952188,873.000000000005,"002",107,96079,96078,1.321875,-0.004625,4.860625,0.0009375,875,"002",96078,875,"002",96379,880,"002"
"482",96903,96902,0.8625,-0.0044375,4.924688,4.952031,817.999999999998,"002",108,96897,96896,1.3,-0.0046875,4.85875,0.0009375,817.999999999998,"002",96896,818,"002",97197,818,"002"
"483",97774,97773,0.790625,-0.005125,4.919688,4.952188,870.999999999995,"002",109,97769,97768,1.2625,-0.005375,4.86125,0.0009375,872,"002",97767,871,"002",98063,866,"002"
"484",98635,98634,0.790625,-0.006125,4.929688,4.95125,861.000000000004,"002",110,98628,98627,1.29375,-0.0065,3.674375,0.000625,858.999999999995,"002",98627,860,"002",98925,862,"002"
"485",99423,99422,0.796875,-0.00725,4.936563,4.952969,787.999999999997,"002",111,99416,99415,1.275,-0.007125,4.86,0.00078125,788.000000000011,"002",99414,787,"002",99716,791,"002"
"486",100242,100241,0.8,-0.0055625,4.905938,4.953125,819.000000000003,"002",112,100238,100237,1.1875,-0.005625,4.860938,0.00078125,821.999999999989,"002",100235,821,"002",100531,815,"002"
"487",101132,101131,0.7875,-0.0061875,4.9175,4.951719,890.000000000001,"002",113,101127,101126,1.26875,-0.006625,4.860313,0.00078125,889.00000000001,"002",101125,890,"002",101417,886,"002"
"488",102005,102004,0.81875,-0.0059375,4.920625,4.952031,873.000000000005,"002",114,101999,101998,1.34375,-0.005875,3.955313,0.000625,872,"002",101998,873,"002",102298,881,"002"
"489",102817,102816,0.778125,-0.0063125,4.932188,4.951406,811.999999999998,"002",115,102810,102809,1.334375,-0.0064375,4.405625,0.00109375,810.999999999993,"002",102809,811,"002",103109,811,"002"
"490",103695,103694,0.821875,-0.0051875,4.925,4.951563,878,"002",116,103689,103688,1.265625,-0.0053125,4.860313,0.00078125,879.000000000005,"002",103687,878,"002",103983,874,"002"
"491",104599,104598,0.634375,-0.005125,4.930625,4.951563,903.999999999996,"002",117,104592,104591,1.228125,-0.0055625,4.359687,0.00078125,902.999999999992,"002",104590,903,"002",104887,904,"002"
"492",105462,105461,0.690625,-0.006875,4.928125,4.951719,863,"002",118,105456,105455,1.171875,-0.00725,4.860938,0.00078125,864.000000000004,"002",105454,864,"002",105754,867,"002"
"493",106274,106273,0.646875,-0.004125,4.932188,4.952656,811.999999999998,"002",119,106267,106266,1.253125,-0.00425,4.020938,0.00078125,811.000000000007,"002",106265,811,"002",106567,813,"002"
"494",107165,107164,0.8125,-0.0048125,4.925937,4.952656,891.000000000005,"002",120,107159,107158,1.265625,-0.0053125,4.860313,0.00078125,891.999999999996,"002",107157,892,"002",107452,885,"002"
"495",108069,108068,0.8625,-0.00525,4.922187,4.952344,903.999999999996,"002",121,108063,108062,1.271875,-0.006,4.8125,0.00078125,903.999999999996,"002",108062,905,"002",108359,907,"002"
"496",108895,108894,0.734375,-0.0049375,4.93125,4.951875,826.000000000008,"002",122,108889,108888,1.29375,-0.0051875,4.860625,0.00046875,826.000000000008,"002",108887,825,"002",109190,831,"002"
"497",109768,109767,0.78125,-0.004875,4.911875,4.951875,872.99999999999,"002",123,109763,109762,1.23125,-0.005,4.859375,0.000625,873.999999999995,"002",109761,874,"002",110058,868,"002"
"498",110656,110655,0.628125,-0.0063125,4.937188,4.952188,888.000000000005,"002",124,110649,110648,1.2,-0.0064375,4.860313,0.00078125,885.999999999996,"002",110647,886,"002",110948,890,"002"
"499",111507,111506,0.89375,-0.0063125,4.91875,4.354687,850.999999999999,"002",125,111502,111501,1.346875,-0.0061875,4.860938,0.00046875,853.000000000009,"002",111501,854,"002",111803,855,"002"
"500",112307,112306,0.940625,-0.0050625,4.9025,4.951875,799.999999999997,"002",126,112303,112302,1.3125,-0.0051875,4.860938,0.000625,801.000000000002,"002",112302,801,"002",112605,802,"002"
"501",113168,113167,0.8625,-0.0049375,4.924688,4.952031,861.000000000004,"002",127,113162,113161,1.33125,-0.0049375,4.859375,0.00078125,858.999999999995,"002",113161,859,"002",113457,852,"002"
"502",114089,114088,0.853125,-0.00425,4.902188,4.952656,920.999999999992,"002",128,114085,114084,1.23125,-0.0043125,4.86125,0.000625,923.000000000002,"002",114083,922,"002",114378,921,"002"
"503",115005,115004,0.771875,-0.00575,4.934687,4.952188,916.000000000011,"002",129,114998,114997,1.278125,-0.005875,4.86,0.00078125,912.999999999997,"002",114997,914,"002",115298,920,"002"
"504",115849,115848,0.909375,-0.005125,4.90125,4.951875,843.999999999994,"002",130,115845,115844,1.31875,-0.005125,4.86,0.000625,846.999999999994,"002",115843,846,"002",116147,849,"002"
"505",116767,116766,0.753125,-0.0049375,4.93625,4.95125,918.000000000006,"002",131,116760,116759,1.35625,-0.0053125,4.860938,0.0009375,915.000000000006,"002",116759,916,"002",117057,910,"002"
"506",117688,117687,0.821875,-0.0063125,4.93625,4.951719,920.999999999992,"002",132,117681,117680,1.328125,-0.0064375,4.860625,0.00078125,921.000000000006,"002",117680,921,"002",117981,924,"002"
"507",118556,118555,0.8375,-0.0050625,4.935313,4.952344,868.000000000009,"002",133,118549,118548,1.346875,-0.0050625,4.860313,0.0009375,867.999999999995,"002",118549,869,"002",118854,873,"002"
"508",119431,119430,0.890625,-0.0045,4.925313,4.951719,875,"002",134,119425,119424,1.30625,-0.0045625,4.860313,0.00078125,876.000000000005,"002",119424,875,"002",119724,870,"002"
"509",120347,120346,0.83125,-0.0046875,4.9125,4.951719,915.999999999997,"002",135,120342,120341,1.271875,-0.0048125,4.860313,0.0009375,916.999999999987,"002",120340,916,"002",120639,915,"002"
"510",121246,121245,0.934375,-0.0041875,4.9075,4.952031,899.000000000001,"002",136,121241,121240,1.35,-0.0048125,4.31875,0.0009375,899.000000000001,"002",121240,900,"002",121543,904,"002"
"511",122072,122071,0.890625,-0.0049375,4.941562,4.952188,825.999999999993,"002",137,122064,122063,1.371875,-0.0051875,4.643125,0.00078125,823.000000000008,"002",122064,824,"002",122370,827,"002"
"512",122948,122947,0.775,-0.0053125,4.939687,4.9525,876.000000000005,"002",138,122940,122939,1.334375,-0.0055,3.890938,0.00046875,875.999999999991,"002",122939,875,"002",123239,869,"002"
"513",123849,123848,0.78125,-0.00575,4.923438,4.951563,900.999999999996,"002",139,123843,123842,1.23125,-0.0058125,4.859687,0.0009375,903.000000000006,"002",123841,902,"002",124141,902,"002"
"514",124737,124736,0.790625,-0.0048125,4.922187,4.952031,888.000000000005,"002",140,124731,124730,1.29375,-0.0050625,4.697188,0.00078125,888.000000000005,"002",124730,889,"002",125039,898,"002"
"515",125593,125592,0.81875,-0.0063125,4.913125,4.952031,855.999999999995,"002",141,125588,125587,1.246875,-0.006,4.86,0.0009375,856.999999999999,"002",125586,856,"002",125889,850,"002"
"516",126544,126543,0.878125,-0.0043125,4.904688,4.951875,951.000000000008,"002",142,126539,126538,1.29375,-0.0043125,3.58375,0.00046875,950.999999999993,"002",126538,952,"002",126836,947,"002"
"517",127432,127431,0.775,-0.00375,4.932188,4.952813,887.999999999991,"002",143,127425,127424,1.315625,-0.00425,4.619063,0.000625,886.00000000001,"002",127424,886,"002",127730,894,"002"
"518",128253,128252,0.834375,-0.005125,4.910625,4.952031,821.000000000012,"002",144,128248,128247,1.36875,-0.0051875,4.846875,0.000625,823.000000000008,"002",128246,822,"002",128549,819,"002"
"519",129175,129174,0.76875,-0.0044375,4.9275,4.952188,921.999999999997,"002",145,129169,129168,1.353125,-0.00475,4.860625,0.00078125,920.999999999992,"002",129167,921,"002",129463,914,"002"
"520",130112,130111,0.7875,-0.0050625,4.92625,4.951875,936.999999999983,"002",146,130106,130105,1.35,-0.00525,4.860313,0.00109375,936.999999999983,"002",130105,938,"002",130403,940,"002"
"521",131021,131020,0.815625,-0.0038125,4.934063,4.9525,909.00000000002,"002",147,131014,131013,1.33125,-0.0038125,4.86,0.00078125,908.000000000015,"002",131014,909,"002",131320,917,"002"
"522",131820,131819,0.81875,-0.0049375,4.930313,4.95375,798.999999999978,"002",148,131814,131813,1.403125,-0.0053125,4.860625,0.000625,799.999999999983,"002",131813,799,"002",132118,798,"002"
"523",132694,132693,0.78125,-0.0058125,4.932812,4.952344,874.000000000024,"002",149,132687,132686,1.346875,-0.0058125,4.857813,0.000625,873.000000000019,"002",132686,873,"002",132982,864,"002"
"524",133557,133556,0.853125,-0.0056875,4.900313,4.951875,863,"002",150,133553,133552,1.25,-0.0058125,4.860313,0.0009375,865.999999999985,"002",133551,865,"002",133851,869,"002"
"525",134378,134377,0.9625,-0.0055,4.882187,4.952188,820.999999999998,"002",151,134375,134374,1.23125,-0.0055625,4.859687,0.00078125,822.000000000003,"002",134373,822,"002",134678,827,"002"
"526",135213,135212,0.834375,-0.0055,4.925937,4.951406,834.99999999998,"002",152,135207,135206,1.271875,-0.00575,4.860313,0.00078125,831.999999999994,"002",135205,832,"002",135505,827,"002"
"527",136096,136095,0.85,-0.00525,4.899687,4.951875,883.00000000001,"002",153,136092,136091,1.25625,-0.0054375,4.86,0.000625,885.000000000019,"002",136090,885,"002",136388,883,"002"
"528",136990,136989,0.8125,-0.0063125,4.916563,4.952031,894.000000000005,"002",154,136985,136984,1.234375,-0.0069375,4.860625,0.00078125,893.000000000001,"002",136983,893,"002",137285,897,"002"
"529",137797,137796,0.94375,-0.0065625,4.897188,4.951875,806.999999999988,"002",155,137793,137792,1.353125,-0.0066875,4.819375,0.000625,807.999999999993,"002",137792,809,"002",138100,815,"002"
"530",138637,138636,0.828125,-0.006,4.919688,4.950625,840.000000000003,"002",156,138632,138631,1.34375,-0.006125,4.860938,0.00078125,838.999999999999,"002",138630,838,"002",138929,829,"002"
"531",139515,139514,0.734375,-0.0063125,4.922813,4.951563,878.000000000014,"002",157,139509,139508,1.26875,-0.0063125,4.85875,0.00078125,877.00000000001,"002",139507,877,"002",139806,877,"002"
"532",140352,140351,0.890625,-0.00525,4.919688,4.953125,836.999999999989,"002",158,140347,140346,1.353125,-0.0054375,4.860938,0.000625,837.999999999994,"002",140346,839,"002",140650,844,"002"
"533",141164,141163,0.7875,-0.005875,4.921563,4.951719,812.000000000012,"002",159,141158,141157,1.35,-0.0059375,3.99625,0.000625,811.000000000007,"002",141157,811,"002",141458,808,"002"
"534",142039,142038,0.96875,-0.005625,4.895625,4.958438,875,"002",160,142035,142034,1.309375,-0.0056875,4.806563,0.00078125,876.999999999981,"002",142034,877,"002",142332,874,"002"
"535",142917,142916,0.85,-0.007,4.938125,4.951875,877.999999999986,"002",161,142910,142909,1.35625,-0.0071875,4.860625,0.000625,875,"002",142909,875,"002",143211,879,"002"
"536",143717,143716,0.9375,-0.006125,4.934687,4.951875,800.000000000011,"002",162,143710,143709,1.334375,-0.006375,4.859687,0.00078125,800.000000000011,"002",143710,801,"002",144016,805,"002"
"537",144562,144561,0.653125,-0.005,4.929688,4.952969,844.999999999999,"002",163,144556,144555,1.209375,-0.00525,4.86125,0.00078125,846.000000000004,"002",144553,843,"002",144852,836,"002"
"538",145432,145431,0.7625,-0.0056875,4.915625,4.952344,870.000000000005,"002",164,145427,145426,1.190625,-0.00575,4.860625,0.000625,870.999999999981,"002",145424,871,"002",145725,873,"002"
"539",146303,146302,0.853125,-0.005875,4.931875,4.951875,870.999999999981,"002",165,146296,146295,1.31875,-0.006125,4.255625,0.000625,869,"002",146296,872,"002",146601,876,"002"
"540",147124,147123,0.825,-0.0053125,4.936563,4.952031,820.999999999998,"002",166,147117,147116,1.33125,-0.0056875,4.86,0.00078125,821.000000000026,"002",147116,820,"002",147420,819,"002"
"541",148021,148020,0.796875,-0.0055625,4.919688,4.952031,897.00000000002,"002",167,148015,148014,1.35625,-0.005875,4.169688,0.00078125,897.999999999996,"002",148014,898,"002",148313,893,"002"
"542",148917,148916,0.86875,-0.0065,4.92625,4.952344,895.999999999987,"002",168,148911,148910,1.353125,-0.0068125,4.860313,0.00078125,895.999999999987,"002",148910,896,"002",149213,900,"002"
"543",149722,149721,0.925,-0.0080625,4.933438,4.951719,805.000000000007,"002",169,149715,149714,1.353125,-0.008125,4.690313,0.00078125,804.000000000002,"002",149715,805,"002",150025,812,"002"
"544",150507,150506,0.890625,-0.0055,4.905,4.100156,784.999999999997,"002",170,150503,150502,1.325,-0.00575,4.860625,0.00078125,788.000000000011,"002",150501,786,"002",150804,779,"002"
"545",151362,151361,0.615625,-0.0059375,4.937188,4.952344,854.99999999999,"002",171,151355,151354,1.28125,-0.006,4.860313,0.0009375,852.000000000004,"002",151352,851,"002",151649,845,"002"
"546",152235,152234,0.703125,-0.0055625,4.924688,4.952344,873.000000000019,"002",172,152229,152228,1.171875,-0.0055625,4.859063,0.00046875,873.999999999995,"002",152227,875,"002",152526,877,"002"
"547",153060,153059,0.671875,-0.0048125,4.938125,4.953125,824.999999999989,"002",173,153053,153052,1.171875,-0.005125,4.860938,0.000625,823.999999999984,"002",153050,823,"002",153357,831,"002"
"548",153884,153883,0.7,-0.0065,4.9225,4.9525,824.000000000012,"002",174,153878,153877,1.29375,-0.006625,4.4925,0.00078125,825.000000000017,"002",153876,826,"002",154177,820,"002"
"549",154755,154754,0.5875,-0.00575,4.935625,4.952031,870.999999999981,"002",175,154748,154747,1.16875,-0.0058125,4.860313,0.00078125,870.000000000005,"002",154745,869,"002",155044,867,"002"
"550",155633,155632,0.8,-0.006625,4.889688,4.952813,878.000000000014,"002",176,155630,155629,1.175,-0.00675,4.860938,0.000625,881.999999999977,"002",155627,882,"002",155930,886,"002"
"551",156437,156436,0.74375,-0.0054375,4.920625,4.951563,804.000000000002,"002",177,156432,156431,1.2,-0.005625,4.860313,0.00078125,802.000000000021,"002",156430,803,"002",156735,805,"002"
"552",157291,157290,0.75,-0.00575,4.914063,4.952031,853.999999999985,"002",178,157286,157285,1.165625,-0.005875,4.86,0.00078125,853.999999999985,"002",157284,854,"002",157582,847,"002"
"553",158164,158163,0.734375,-0.0055625,4.925625,4.9525,873.000000000019,"002",179,158158,158157,1.16875,-0.0056875,4.86,0.00078125,872.000000000014,"002",158155,871,"002",158456,874,"002"
"554",159004,159003,0.6625,-0.0061875,4.94125,4.952031,839.999999999975,"002",180,158996,158995,1.221875,-0.0063125,4.819063,0.00078125,837.999999999994,"002",158994,839,"002",159300,844,"002"
"555",159771,159770,0.7,-0.0056875,4.9325,4.952188,767.000000000024,"002",181,159765,159764,1.284375,-0.0056875,4.860938,0.00078125,769.000000000005,"002",159763,769,"002",160068,768,"002"
"556",160618,160617,0.66875,-0.0059375,4.929062,4.952344,846.99999999998,"002",182,160612,160611,1.24375,-0.006,4.860938,0.000625,846.99999999998,"002",160609,846,"002",160908,840,"002"
"557",161472,161471,0.6,-0.006,4.946562,4.951563,854.000000000013,"002",183,161463,161462,1.234375,-0.0061875,4.043438,0.0009375,850.999999999999,"002",161461,852,"002",161764,856,"002"
"558",162274,162273,0.75625,-0.006875,4.940625,4.952188,801.999999999992,"002",184,162266,162265,1.3,-0.0071875,4.645625,0.00078125,802.999999999997,"002",162264,803,"002",162571,807,"002"
"559",163067,163066,0.63125,-0.006375,4.955,4.952188,793.000000000006,"002",185,163057,163056,1.303125,-0.0068125,4.860313,0.000625,791.000000000025,"002",163056,792,"002",163358,787,"002"
"560",163935,163934,0.828125,-0.006,4.92625,4.961563,867.999999999995,"002",186,163929,163928,1.265625,-0.0060625,4.860313,0.0009375,871.999999999986,"002",163927,871,"002",164228,870,"002"
"561",164820,164819,0.734375,-0.006625,4.933438,4.951875,884.999999999991,"002",187,164813,164812,1.21875,-0.0066875,4.85875,0.0009375,884.000000000015,"002",164811,884,"002",165113,885,"002"
"562",165646,165645,0.778125,-0.006875,4.933125,4.951875,826.000000000022,"002",188,165639,165638,1.284375,-0.0070625,4.68625,0.000625,825.999999999993,"002",165638,827,"002",165945,832,"002"
"563",166437,166436,0.734375,-0.006875,4.9425,4.952031,790.999999999997,"002",189,166429,166428,1.325,-0.0071875,4.85875,0.000625,789.999999999992,"002",166427,789,"002",166730,785,"002"
"564",167295,167294,0.73125,-0.006125,4.932188,4.952031,858.000000000004,"002",190,167288,167287,1.34375,-0.006125,4.58,0.000625,859.000000000009,"002",167286,859,"002",167584,854,"002"
"565",168154,168153,0.728125,-0.0079375,4.930625,4.952031,858.99999999998,"002",191,168147,168146,1.325,-0.008,3.811563,0.00078125,858.99999999998,"002",168146,860,"002",168446,862,"002"
"566",168945,168944,0.771875,-0.00725,4.94125,4.952344,790.999999999997,"002",192,168937,168936,1.365625,-0.0073125,4.434687,0.00078125,790.00000000002,"002",168936,790,"002",169241,795,"002"
"567",169739,169738,0.809375,-0.0058125,4.925937,4.951563,794.000000000011,"002",193,169733,169732,1.265625,-0.0061875,4.86,0.00046875,795.999999999992,"002",169731,795,"002",170030,789,"002"
"568",170596,170595,0.746875,-0.00625,4.92,4.951875,856.999999999999,"002",194,170590,170589,1.28125,-0.006125,4.104063,0.00046875,856.999999999999,"002",170588,857,"002",170884,854,"002"
"569",171459,171458,0.740625,-0.007,4.907813,3.866563,863,"002",195,171454,171453,1.178125,-0.0071875,4.154063,0.00078125,864.000000000004,"002",171452,864,"002",171752,868,"002"
"570",172276,172275,0.6625,-0.006625,4.905,4.951719,817.000000000007,"002",196,172272,172271,1.009375,-0.0066875,4.860938,0.000625,817.999999999984,"002",172269,817,"002",172573,821,"002"
"571",173109,173108,0.634375,-0.0064375,4.9,4.952656,832.999999999998,"002",197,173105,173104,0.984375,-0.0065,4.859375,0.00109375,833.000000000027,"002",173102,833,"002",173400,827,"002"
"572",174005,174004,0.746875,-0.006125,4.907188,4.951875,895.999999999987,"002",198,174000,173999,1.246875,-0.00625,4.113437,0.00078125,894.999999999982,"002",173998,896,"002",174295,895,"002"
"573",174895,174894,0.709375,-0.006,4.930625,4.951094,890.000000000015,"002",199,174888,174887,1.278125,-0.0063125,4.175937,0.0009375,888.000000000005,"002",174886,888,"002",175187,892,"002"
"574",175706,175705,0.74375,-0.0064375,4.918125,4.952813,811.000000000007,"002",200,175701,175700,1.134375,-0.0066875,4.860313,0.00078125,812.999999999988,"002",175698,812,"002",176002,815,"002"
"575",176539,176538,0.559375,-0.006375,4.920625,4.951719,832.999999999998,"002",201,176533,176532,1.140625,-0.0065,3.929375,0.000625,832.000000000022,"002",176530,832,"002",176828,826,"002"
"576",177401,177400,0.559375,-0.0059375,4.91875,4.951563,861.999999999995,"002",202,177396,177395,0.915625,-0.006,4.860313,0.00078125,863,"002",177392,862,"002",177688,860,"002"
"577",178255,178254,0.684375,-0.0065625,4.931563,4.952031,853.999999999985,"002",203,178248,178247,1.25,-0.0069375,4.47125,0.000625,852.000000000004,"002",178246,854,"002",178548,860,"002"
"578",179045,179044,0.80625,-0.006,4.917813,4.952188,790.00000000002,"002",204,179040,179039,1.2125,-0.00625,4.860625,0.00078125,791.999999999973,"002",179038,792,"002",179341,793,"002"
"579",179909,179908,0.70625,-0.0068125,4.925313,4.952344,863.999999999976,"002",205,179903,179902,1.1375,-0.007,4.860313,0.000625,863,"002",179900,862,"002",180197,856,"002"
"580",180787,180786,0.615625,-0.00475,4.93625,4.951875,878.000000000014,"002",206,180780,180779,1.215625,-0.004875,4.860938,0.000625,877.00000000001,"002",180778,878,"002",181077,880,"002"
"581",181627,181626,0.796875,-0.0058125,4.924688,4.952344,840.000000000003,"002",207,181621,181620,1.275,-0.0060625,4.859687,0.00078125,841.000000000008,"002",181620,842,"002",181925,848,"002"
"582",182453,182452,0.834375,-0.0060625,4.914375,4.952031,825.999999999993,"002",208,182448,182447,1.303125,-0.0064375,4.86,0.00078125,826.999999999998,"002",182447,827,"002",182746,821,"002"
"583",183354,183353,0.75,-0.0058125,4.93,4.952188,901.00000000001,"002",209,183347,183346,1.35,-0.00625,3.925625,0.00078125,899.000000000001,"002",183346,899,"002",183641,895,"002"
"584",184249,184248,0.865625,-0.00425,4.897188,4.952188,894.999999999982,"002",210,184245,184244,1.246875,-0.004375,4.86,0.00078125,897.999999999996,"002",184243,897,"002",184544,903,"002"
"585",185079,185078,0.871875,-0.006,4.93,4.952188,830.000000000013,"002",211,185073,185072,1.36875,-0.0063125,4.860938,0.000625,828.000000000003,"002",185072,829,"002",185377,833,"002"
"586",185923,185922,0.878125,-0.0055625,4.929688,4.95375,843.999999999994,"002",212,185917,185916,1.40625,-0.005875,4.860938,0.00078125,843.999999999994,"002",185916,844,"002",186215,838,"002"
"587",186792,186791,0.846875,-0.006,4.915625,4.9525,869,"002",213,186787,186786,1.26875,-0.0061875,4.86,0.0009375,870.000000000005,"002",186785,869,"002",187085,870,"002"
"588",187653,187652,0.73125,-0.0060625,4.92875,4.95125,860.99999999999,"002",214,187647,187646,1.240625,-0.0063125,4.86125,0.000625,859.999999999985,"002",187645,860,"002",187948,863,"002"
"589",188446,188445,0.740625,-0.0061875,4.936875,4.952031,793.000000000006,"002",215,188439,188438,1.2875,-0.0063125,4.860313,0.00046875,792.000000000002,"002",188437,792,"002",188742,794,"002"
"590",189307,189306,0.690625,-0.006125,4.930625,4.952031,861.000000000018,"002",216,189300,189299,1.3,-0.0060625,2.505937,0.00078125,861.000000000018,"002",189299,862,"002",189596,854,"002"
"591",190183,190182,0.75625,-0.007125,4.912187,4.9525,875.999999999976,"002",217,190178,190177,1.21875,-0.00725,4.859687,0.000625,877.999999999986,"002",190176,877,"002",190476,880,"002"
"592",191056,191055,0.81875,-0.006125,4.917813,4.952188,873.000000000019,"002",218,191051,191050,1.24375,-0.006125,4.860938,0.000625,873.000000000019,"002",191049,873,"002",191353,877,"002"
"593",191891,191890,0.76875,-0.006125,4.9175,4.951875,834.99999999998,"002",219,191886,191885,1.240625,-0.00625,4.860625,0.0009375,834.99999999998,"002",191884,835,"002",192187,834,"002"
"594",192786,192785,0.609375,-0.006375,4.930625,4.952031,895.00000000001,"002",220,192779,192778,1.240625,-0.0065625,4.345,0.00046875,893.000000000001,"002",192777,893,"002",193074,887,"002"
"595",193699,193698,0.775,-0.005125,4.890313,4.952656,913.000000000011,"002",221,193695,193694,1.196875,-0.0053125,4.13125,0.00078125,915.999999999997,"002",193693,916,"002",193993,919,"002"
"596",194560,194559,0.6625,-0.00525,4.91125,4.952031,860.99999999999,"002",222,194555,194554,1.165625,-0.0053125,4.859687,0.000625,860.000000000014,"002",194553,860,"002",194857,864,"002"
"597",195447,195446,0.715625,-0.005125,4.927188,4.952031,887,"002",223,195441,195440,1.159375,-0.00525,4.860313,0.000625,885.999999999996,"002",195438,885,"002",195737,880,"002"
"598",196372,196371,0.6375,-0.0058125,4.933125,4.951875,925.000000000011,"002",224,196365,196364,1.153125,-0.0060625,4.859687,0.00078125,924.000000000007,"002",196363,925,"002",196663,926,"002"
"599",197243,197242,0.784375,-0.0064375,4.916563,4.952188,870.999999999981,"002",225,197238,197237,1.20625,-0.0063125,4.860625,0.00078125,872.99999999999,"002",197236,873,"002",197542,879,"002"
"600",198076,198075,0.621875,-0.005875,4.9375,4.951719,832.999999999998,"002",226,198069,198068,1.2375,-0.006125,4.860625,0.00078125,831.000000000017,"002",198067,831,"002",198370,828,"002"
"601",198977,198976,0.6375,-0.006,4.938125,4.951875,901.00000000001,"002",227,198970,198969,1.2625,-0.0063125,4.860938,0.00078125,900.999999999982,"002",198967,900,"002",199267,897,"002"
"602",199839,199838,0.696875,-0.006375,4.943125,4.952344,861.999999999995,"002",228,199831,199830,1.296875,-0.0061875,4.860625,0.00078125,861.000000000018,"002",199830,863,"002",200136,869,"002"
"603",200648,200647,0.70625,-0.0068125,4.947813,4.952188,808.999999999997,"002",229,200639,200638,1.359375,-0.006875,4.414375,0.00078125,807.999999999993,"002",200638,808,"002",200941,805,"002"
"604",201526,201525,0.759375,-0.0065,4.931563,4.951563,878.000000000014,"002",230,201519,201518,1.375,-0.0065625,4.459062,0.00078125,879.999999999995,"002",201518,880,"002",201816,875,"002"
"605",202434,202433,0.6625,-0.006,4.938125,4.952031,907.999999999987,"002",231,202427,202426,1.265625,-0.006375,4.860625,0.0009375,907.999999999987,"002",202425,907,"002",202727,911,"002"
"606",203293,203292,0.759375,-0.0061875,4.938125,4.952813,859.000000000009,"002",232,203286,203285,1.353125,-0.006125,4.860313,0.00078125,859.000000000009,"002",203285,860,"002",203592,865,"002"
"607",204159,204158,0.646875,-0.0059375,4.940625,4.952031,865.999999999985,"002",233,204151,204150,1.2875,-0.0060625,4.754375,0.00078125,865.000000000009,"002",204149,864,"002",204450,858,"002"
"608",205075,205074,0.790625,-0.006,4.924062,4.951563,916.000000000025,"002",234,205069,205068,1.2375,-0.0060625,4.86,0.00078125,918.000000000006,"002",205067,918,"002",205366,916,"002"
"609",205995,205994,0.78125,-0.006125,4.932188,4.952188,919.999999999987,"002",235,205988,205987,1.284375,-0.0066875,4.858438,0.00078125,918.999999999983,"002",205987,920,"002",206289,923,"002"
"610",206812,206811,0.890625,-0.00675,4.924062,4.9525,817.000000000007,"002",236,206806,206805,1.346875,-0.0068125,4.84375,0.00078125,818.000000000012,"002",206806,819,"002",207112,823,"002"
"611",207701,207700,0.9375,-0.0066875,4.914688,4.951875,888.999999999982,"002",237,207696,207695,1.3375,-0.0068125,4.860625,0.000625,889.999999999986,"002",207695,889,"002",207992,880,"002"
"612",208598,208597,0.846875,-0.0059375,4.907188,4.952344,897.00000000002,"002",238,208593,208592,1.30625,-0.0061875,4.019375,0.000625,897.00000000002,"002",208592,897,"002",208891,899,"002"
"613",209445,209444,0.80625,-0.006875,4.9275,4.953281,846.99999999998,"002",239,209439,209438,1.353125,-0.007125,4.860625,0.00078125,845.999999999975,"002",209438,846,"002",209743,852,"002"
"614",210238,210237,0.84375,-0.006625,4.935625,4.951875,793.000000000006,"002",240,210231,210230,1.340625,-0.0068125,4.859687,0.0009375,792.000000000002,"002",210230,792,"002",210534,791,"002"
"615",211085,211084,0.865625,-0.00625,4.927188,4.952188,847.000000000008,"002",241,211079,211078,1.3,-0.0063125,4.86,0.00046875,848.000000000013,"002",211078,848,"002",211375,841,"002"
"616",211975,211974,0.81875,-0.0071875,4.9225,4.9525,889.999999999986,"002",242,211969,211968,1.328125,-0.007375,4.7975,0.0009375,889.999999999986,"002",211968,890,"002",212265,890,"002"
"617",212817,212816,0.928125,-0.0069375,4.9,4.9525,842.000000000013,"002",243,212813,212812,1.33125,-0.007125,4.86,0.00078125,844.000000000023,"002",212812,844,"002",213117,852,"002"
"618",213643,213642,0.721875,-0.0069375,4.922813,4.952188,825.999999999993,"002",244,213637,213636,1.33125,-0.0071875,4.710312,0.000625,823.999999999984,"002",213635,823,"002",213936,819,"002"
"619",214533,214532,0.834375,-0.00725,4.89375,4.952031,890.000000000015,"002",245,214529,214528,1.259375,-0.00725,4.682812,0.0009375,891.999999999996,"002",214527,892,"002",214823,887,"002"
"620",215413,215412,0.9,-0.0071875,4.917813,4.9525,879.999999999995,"002",246,215408,215407,1.340625,-0.0073125,4.86,0.000625,879.000000000019,"002",215407,880,"002",215708,885,"002"
"621",216217,216216,0.871875,-0.0079375,4.925625,4.951563,804.000000000002,"002",247,216211,216210,1.3625,-0.0081875,4.85875,0.000625,802.999999999997,"002",216210,803,"002",216513,805,"002"
"622",217095,217094,0.825,-0.006375,4.91,4.952031,877.999999999986,"002",248,217090,217089,1.33125,-0.006375,4.650938,0.000625,878.999999999991,"002",217089,879,"002",217384,871,"002"
"623",217999,217998,0.734375,-0.0069375,4.919062,4.951875,903.999999999996,"002",249,217993,217992,1.2625,-0.0088125,3.759688,0.000625,902.999999999992,"002",217991,902,"002",218289,905,"002"
"624",218886,218885,0.90625,-0.0066875,4.916875,4.951875,887,"002",250,218881,218880,1.365625,-0.0066875,4.860938,0.000625,888.000000000005,"002",218880,889,"002",219183,894,"002"
"625",219695,219694,0.99375,-0.007375,4.9175,4.951875,808.999999999997,"002",251,219690,219689,1.35625,-0.0075,4.860313,0.00078125,808.999999999997,"002",219690,810,"002",219994,811,"002"
"626",220569,220568,0.7375,-0.00625,4.93,4.952969,874.000000000024,"002",252,220562,220561,1.340625,-0.0065625,4.295,0.000625,872.000000000014,"002",220561,871,"002",220856,862,"002"
"627",221466,221465,0.796875,-0.006625,4.915625,4.951875,896.999999999991,"002",253,221461,221460,1.2375,-0.0066875,4.86,0.000625,899.000000000001,"002",221459,898,"002",221756,900,"002"
"628",222353,222352,0.9125,-0.0075,4.902188,4.951875,887,"002",254,222349,222348,1.31875,-0.0075625,4.860313,0.00078125,888.000000000005,"002",222348,889,"002",222650,894,"002"
"629",223160,223159,0.909375,-0.0063125,4.928125,4.952188,806.999999999988,"002",255,223154,223153,1.340625,-0.006375,4.86,0.0009375,804.999999999978,"002",223154,806,"002",223458,808,"002"
"630",224026,224025,0.803125,-0.0069375,4.922187,4.952188,866.000000000014,"002",256,224020,224019,1.328125,-0.0069375,4.824688,0.00078125,866.000000000014,"002",224018,864,"002",224313,855,"002"
"631",224911,224910,0.778125,-0.0065,4.917187,4.952188,884.999999999991,"002",257,224906,224905,1.25,-0.0065625,4.860625,0.00078125,885.999999999996,"002",224903,885,"002",225201,888,"002"
"632",225781,225780,0.759375,-0.006375,4.93125,4.962031,870.000000000005,"002",258,225774,225773,1.340625,-0.0065625,4.245625,0.000625,867.999999999995,"002",225773,870,"002",226077,876,"002"
"633",226579,226578,0.78125,-0.00775,4.940313,4.951875,798.000000000002,"002",259,226571,226570,1.384375,-0.00825,3.940313,0.00078125,796.999999999997,"002",226570,797,"002",226873,796,"002"
"634",227475,227474,0.66875,-0.0068125,4.949375,4.859687,895.999999999987,"002",260,227466,227465,1.35625,-0.0069375,4.860313,0.00046875,895.00000000001,"002",227465,895,"002",227759,886,"002"
"635",228379,228378,0.865625,-0.006375,4.924688,4.849219,903.999999999996,"002",261,228373,228372,1.290625,-0.0065625,4.859687,0.00078125,907.000000000011,"002",228372,907,"002",228671,912,"002"
"636",229210,229209,0.81875,-0.008125,4.940313,4.9525,831.000000000017,"002",262,229202,229201,1.384375,-0.008125,4.380313,0.000625,828.999999999979,"002",229202,830,"002",229508,837,"002"
"637",230022,230021,0.828125,-0.007375,4.933125,4.9525,811.999999999983,"002",263,230015,230014,1.421875,-0.0075625,4.7325,0.00078125,813.000000000017,"002",230014,812,"002",230313,805,"002"
"638",230902,230901,0.8,-0.0066875,4.944687,4.952344,880.000000000024,"002",264,230894,230893,1.4,-0.0066875,4.860625,0.000625,878.999999999991,"002",230893,879,"002",231188,875,"002"
"639",231796,231795,0.8125,-0.0065,4.935938,4.952188,893.999999999977,"002",265,231789,231788,1.353125,-0.006875,4.859687,0.0009375,895.00000000001,"002",231788,895,"002",232087,899,"002"
"640",232612,232611,0.90625,-0.00625,4.92625,4.953281,816.000000000003,"002",266,232606,232605,1.321875,-0.007,4.859687,0.0009375,816.999999999979,"002",232605,817,"002",232908,821,"002"
"641",233476,233475,0.75625,-0.0063125,4.927188,4.952031,864.000000000004,"002",267,233470,233469,1.30625,-0.0065,4.860313,0.000625,864.000000000004,"002",233468,863,"002",233766,858,"002"
"642",234347,234346,0.803125,-0.0068125,4.908437,4.951406,871.000000000009,"002",268,234342,234341,1.3,-0.0069375,4.51,0.0009375,872.000000000014,"002",234340,872,"002",234641,875,"002"
"643",235177,235176,0.065625,-0.0070625,4.959688,4.952188,829.999999999984,"002",269,235164,235163,1.003125,-0.007375,4.860938,0.00078125,822.000000000003,"002",235160,820,"002",235466,825,"002"
"644",235965,235964,0.709375,-0.007125,4.91625,4.952969,788.000000000011,"002",270,235960,235959,1.1125,-0.007375,4.86,0.000625,795.999999999992,"002",235957,797,"002",236258,792,"002"
"645",236810,236809,0.65625,-0.0073125,4.910625,4.951719,844.999999999999,"002",271,236805,236804,1.1375,-0.0073125,4.727188,0.000625,844.999999999999,"002",236802,845,"002",237100,842,"002"
"646",237666,237665,0.7625,-0.0068125,4.923125,4.79,855.999999999995,"002",272,237660,237659,1.221875,-0.0069375,4.859687,0.0009375,854.99999999999,"002",237659,857,"002",237961,861,"002"
"647",238478,238477,0.175,-0.00675,4.959062,4.951875,812.000000000012,"002",273,238465,238464,1.184375,-0.007625,4.860625,0.00078125,805.000000000007,"002",238462,803,"002",238770,809,"002"
"648",239268,239267,0.86875,-0.0083125,4.930625,4.952656,789.999999999992,"002",274,239262,239261,1.390625,-0.008625,4.860625,0.00046875,796.999999999997,"002",239261,799,"002",239562,792,"002"
"649",240139,240138,0.828125,-0.0073125,4.920625,4.952344,871.000000000009,"002",275,240133,240132,1.384375,-0.0075,4.400625,0.0009375,871.000000000009,"002",240132,871,"002",240428,866,"002"
"650",241019,241018,0.84375,-0.007625,4.914063,4.952031,879.999999999995,"002",276,241014,241013,1.271875,-0.007625,4.860625,0.0009375,881,"002",241012,880,"002",241313,885,"002"
